HRV_MeanNN,HRV_SDNN,HRV_RMSSD,HRV_SDSD,HRV_pNN50,HRV_pNN20,HRV_IQRNN,HRV_HTI,HRV_TINN,HRV_HFn,HRV_LnHF,ECG_R_Peaks_Count,Label
745.897435897436,116.25751052147494,96.74731502503955,98.0417310726912,17.94871794871795,48.717948717948715,85.71428571428578,9.75,367.1875,0.9360001939216588,-2.709756103607465,40,No Definido/Transitorio
760.9398496240602,41.65399503467267,35.44920933336495,35.88270029450576,5.263157894736842,55.26315789473685,37.14285714285711,5.428571428571429,109.375,0.9505161796259404,-2.073763566808735,39,No Definido/Transitorio
780.6949806949807,53.24676394798236,36.79476695514521,37.197674532230714,18.91891891891892,48.64864864864865,72.85714285714278,7.4,109.375,0.942507949450992,-3.8280934870244026,38,No Definido/Transitorio
725.1785714285714,40.966460864357266,27.1486402167787,27.452798005262995,10.0,40.0,65.71428571428567,8.0,93.75,0.8875932782590461,-4.275580228718827,41,No Definido/Transitorio
820.793650793651,73.17015151165411,51.5582265876453,52.29715367615467,25.0,52.77777777777778,134.6428571428571,9.0,210.9375,0.8883202412245714,-2.8723446680765234,37,No Definido/Transitorio
784.7876447876447,92.38353961535167,35.49935325654051,35.966907008260364,16.216216216216218,59.45945945945946,155.71428571428578,9.25,62.5,0.9109161337617214,-5.826798080927324,38,No Definido/Transitorio
769.0601503759399,43.475939819224855,38.80737216797298,39.3398675162564,21.052631578947366,55.26315789473685,48.214285714285666,7.6,70.3125,0.7420752170485477,-3.795353857398326,39,No Definido/Transitorio
790.1158301158302,65.4527043405013,47.96422514149516,48.623021818155884,21.62162162162162,70.27027027027027,77.14285714285722,9.25,101.5625,0.9185626116516508,-3.911932006217291,38,No Definido/Transitorio
829.061224489796,53.71878094137538,45.13551690137584,45.796415273834505,25.71428571428571,62.857142857142854,38.57142857142867,5.833333333333333,117.1875,0.9521222713806813,-3.008943707202517,36,No Definido/Transitorio
789.3253968253968,69.6885918786601,48.70030920454279,49.36961559073992,33.33333333333333,69.44444444444444,74.28571428571433,7.2,125.0,0.9422917914927986,-3.492104257183839,37,No Definido/Transitorio
807.8174603174604,56.78611717080657,61.62190742924677,62.39236658981413,25.0,63.888888888888886,70.00000000000011,7.2,179.6875,0.807164751863659,-2.9738133444249577,37,Baseline
786.9444444444446,68.94300073378129,50.31562190393931,50.993659254566275,33.33333333333333,69.44444444444444,98.21428571428578,7.2,179.6875,0.9424881005920465,-4.02304637887132,37,Baseline
808.6122448979592,68.97942845758016,46.27738798436513,46.96122536869962,22.857142857142858,48.57142857142857,109.28571428571422,8.75,187.5,0.8243695348429328,-3.341476340216318,36,Baseline
854.327731092437,63.840677244294824,52.97226261035681,53.73312538036123,29.411764705882355,82.35294117647058,110.0,11.333333333333334,85.9375,0.7947333822328442,-4.3984753158451735,35,Baseline
765.0751879699247,92.33545007876918,39.9917255644693,40.53247657332784,15.789473684210526,57.89473684210527,148.21428571428578,7.6,15.625,0.975441604971308,-4.976503916483901,39,Baseline
722.3571428571429,86.59411083553647,63.09105660344077,63.875714168672815,27.500000000000004,65.0,112.14285714285711,13.333333333333334,54.6875,0.9619644152435904,-3.483998891837816,41,Baseline
834.9159663865546,86.81414917385605,72.3900655005832,73.4914245793601,35.294117647058826,61.76470588235294,100.0,8.5,171.875,0.9726092499804064,-3.1012934613943024,35,Baseline
821.1020408163264,85.08599259671801,61.59494764207541,62.491776169633184,25.71428571428571,54.285714285714285,154.28571428571422,11.666666666666666,117.1875,0.9184573983363596,-3.9648328605369922,36,Baseline
852.8151260504202,63.514357663852515,46.47633241054191,46.974973270785064,23.52941176470588,67.64705882352942,86.42857142857144,8.5,156.25,0.8016500812210006,-4.152912102488489,35,Baseline
821.1428571428571,58.76459232330615,75.43232738293155,76.526743933182,31.428571428571427,68.57142857142857,81.42857142857144,11.666666666666666,117.1875,0.9233838401409236,-1.9756148313799482,36,Baseline
785.6349206349207,86.6102455203178,75.04828377757336,76.14068250837856,44.44444444444444,77.77777777777779,128.92857142857133,12.0,187.5,0.962349056431971,-2.7698574552215596,37,Baseline
835.1680672268908,37.111233133953085,46.53484341013665,47.24973127702837,38.23529411764706,73.52941176470588,54.285714285714334,8.5,85.9375,0.9639813874606827,-1.9926800209722597,35,Baseline
819.7551020408163,56.983481225415765,50.98784074621696,51.74083959655561,20.0,62.857142857142854,70.00000000000011,11.666666666666666,78.125,0.9064740506055,-3.8887815990730985,36,Baseline
838.4897959183675,50.32898116786491,48.99040746931591,49.69932146897317,28.57142857142857,71.42857142857143,66.42857142857144,8.75,179.6875,0.8396449523512491,-3.4133870414886913,36,Baseline
818.734693877551,75.78066808421978,63.504591434425464,64.41046944665773,40.0,60.0,81.42857142857156,11.666666666666666,148.4375,0.8706648574214104,-3.124882389304599,36,Baseline
847.6050420168067,90.62602352275383,56.37251311590687,57.241088457437705,32.35294117647059,70.58823529411765,149.28571428571422,8.5,125.0,0.9556666808008948,-4.330214485999076,35,Baseline
834.1632653061224,51.86598696323092,59.151665807711026,60.03903322479354,42.857142857142854,74.28571428571429,51.428571428571445,8.75,140.625,0.7794340720623063,-2.8415140979811433,36,Baseline
812.6587301587301,42.61038181955079,35.42577342473307,35.89462273105782,11.11111111111111,61.111111111111114,61.42857142857156,6.0,117.1875,0.8249317396651511,-3.734798166050354,37,Baseline
878.0519480519481,47.31141158376315,69.94394621584415,71.06241114088392,33.33333333333333,75.75757575757575,60.0,6.6,109.375,0.7474387981382409,-2.0917287042804613,34,Baseline
834.0408163265306,42.50765867620492,47.69286994863672,48.387077313815084,22.857142857142858,62.857142857142854,71.42857142857144,8.75,54.6875,0.917566197373703,-3.005247585591622,36,Baseline
819.1836734693878,50.43661196437429,50.007802512456486,50.737888896873905,22.857142857142858,68.57142857142857,77.14285714285711,8.75,54.6875,0.899593779118252,-3.240397896137689,36,Baseline
794.8412698412698,114.85535473162766,116.26475266120107,117.94869665974178,44.44444444444444,80.55555555555556,102.85714285714289,12.0,484.375,0.9164024611444317,-2.021492564789016,37,Baseline
859.4805194805195,51.61031648894487,55.377876301583385,56.202443139762266,27.27272727272727,66.66666666666666,60.0,6.6,125.0,0.8254581928851625,-3.248462938469141,34,Baseline
844.4489795918367,47.10053030923045,63.113971110521454,64.05991241050933,42.857142857142854,68.57142857142857,59.999999999999886,8.75,101.5625,0.6815835069237212,-2.7348445161173527,36,Baseline
802.301587301587,51.215292197183544,45.022184360025264,45.59513283107885,27.77777777777778,75.0,76.42857142857144,9.0,85.9375,0.8792255679073842,-2.784594483534012,37,Baseline
832.2040816326531,64.23652913667856,61.48326664085712,62.27898095334762,42.857142857142854,80.0,76.42857142857156,7.0,171.875,0.8769541707567097,-3.2909934054807426,36,Baseline
845.6722689075631,48.61786078845888,53.46670861496432,54.26278280756548,32.35294117647059,70.58823529411765,64.99999999999989,5.666666666666667,132.8125,0.8719883103844248,-2.595497066896487,35,Baseline
877.5,42.88938879065631,40.170800579813836,40.82407650803938,21.875,59.375,65.35714285714289,8.0,117.1875,0.9010863159228896,-2.8579027239551986,33,Baseline
841.8487394957983,68.17029987468818,71.16835718867667,72.25635065699018,41.17647058823529,79.41176470588235,72.14285714285711,11.333333333333334,164.0625,0.9101796572120983,-2.9873451909804163,35,Baseline
852.8571428571428,69.44786221232954,58.32224472751075,59.16377043091261,29.411764705882355,76.47058823529412,88.92857142857144,8.5,156.25,0.9793689628862173,-3.500989406711946,35,Baseline
856.5367965367966,70.37257834945216,66.03039266203132,67.08619471542303,45.45454545454545,87.87878787878788,117.14285714285711,11.0,78.125,0.9316072409204312,-3.3274857607614905,34,Baseline
856.4705882352941,56.84145109022991,52.885800117334995,53.31022178198128,32.35294117647059,79.41176470588235,64.64285714285711,6.8,140.625,0.9555137484071275,-2.5443409702932636,35,Baseline
842.1632653061224,46.795731724502645,47.68154162529464,48.198832276221154,28.57142857142857,80.0,53.57142857142867,7.0,70.3125,0.939799895776654,-2.7728359365608397,36,Baseline
874.7186147186146,58.54146102759578,76.82806141253442,78.05738845256246,39.39393939393939,72.72727272727273,85.71428571428555,8.25,46.875,0.9072247165075339,-2.1900554862005346,34,Baseline
829.5510204081633,95.96716339461419,87.75614198551847,89.07413178419716,37.142857142857146,74.28571428571429,121.42857142857133,11.666666666666666,156.25,0.931346098102703,-2.7606556325718823,36,Baseline
845.8823529411765,72.30181767644258,64.57510620489067,65.45149081548163,52.94117647058824,70.58823529411765,83.92857142857133,8.5,148.4375,0.8830431105184036,-2.8681099390489266,35,Baseline
859.2640692640692,57.35465349085701,78.29537544661582,79.46329544249122,33.33333333333333,66.66666666666666,40.0,5.5,85.9375,0.7568454525773012,-2.414805156587568,34,Baseline
832.0588235294117,60.08774369244986,59.76298269150838,60.68257384199401,44.11764705882353,67.64705882352942,91.42857142857156,8.5,23.4375,0.918503250502881,-3.502547444376888,35,Baseline
808.3730158730159,62.999053885049754,53.758449061343335,54.38267703647209,36.11111111111111,69.44444444444444,103.21428571428578,12.0,54.6875,0.9379591879569067,-3.529395961615534,37,No Definido/Transitorio
783.3590733590732,57.527688508658436,53.59840590583137,54.221229153921804,29.72972972972973,75.67567567567568,85.71428571428578,9.25,148.4375,0.9559238071076495,-2.679543898779026,38,No Definido/Transitorio
841.512605042017,46.88957432249502,64.08192808033718,64.97558530109245,38.23529411764706,73.52941176470588,52.499999999999886,6.8,125.0,0.9109685116294988,-2.1242909441437825,35,No Definido/Transitorio
746.0150375939851,59.90170095821538,54.53559639475188,55.25456861715014,34.21052631578947,63.1578947368421,66.78571428571422,7.6,171.875,0.9854356665713766,-2.6233798551211898,39,No Definido/Transitorio
797.4206349206348,253.32720505604905,373.0507746493395,378.49183969380397,44.44444444444444,63.888888888888886,190.0000000000001,9.0,62.5,0.9860517640847694,-1.8314629726568463,37,No Definido/Transitorio
826.6938775510204,162.84710695473217,182.04322534595383,183.8428756235352,45.714285714285715,77.14285714285715,119.28571428571433,11.666666666666666,500.0,0.9019803635171668,-2.5522209902936686,36,No Definido/Transitorio
835.591836734694,74.6680299546432,57.29863221143521,58.072289213458895,40.0,65.71428571428571,92.85714285714289,8.75,171.875,0.9810906146547965,-3.226392506574696,36,No Definido/Transitorio
893.75,49.252142442949015,54.97800146568891,55.83963212745079,28.125,65.625,88.92857142857144,6.4,39.0625,0.9879061433112114,-2.5305391041965377,33,No Definido/Transitorio
835.0420168067226,63.49463749981454,52.20671532993744,52.85487593126426,32.35294117647059,55.88235294117647,101.42857142857144,11.333333333333334,54.6875,0.9890477854826798,-2.855928097365629,35,No Definido/Transitorio
859.7402597402597,83.88483248236055,48.74967294500444,49.52298792595102,21.21212121212121,60.60606060606061,104.28571428571422,11.0,140.625,0.9805496184430149,-3.8082537343951195,34,No Definido/Transitorio
865.8403361344539,43.02042150308252,43.73205082814121,44.40991172857991,29.411764705882355,64.70588235294117,49.64285714285711,8.5,85.9375,0.9314003450586256,-2.6922108845380563,35,No Definido/Transitorio
839.453781512605,49.45093044063927,51.271404869853036,52.05074738205309,29.411764705882355,58.82352941176471,72.85714285714289,8.5,70.3125,0.9516634184687348,-2.260022876999411,35,No Definido/Transitorio
848.8235294117648,47.92860928409972,54.71464175395332,55.551223805561754,29.411764705882355,61.76470588235294,60.714285714285666,6.8,70.3125,0.8287981332789032,-3.7272641530754784,35,No Definido/Transitorio
851.6806722689076,39.65290124813812,39.01460963532645,39.359925970688224,20.588235294117645,70.58823529411765,47.857142857142776,8.5,101.5625,0.8053921139538196,-3.371114003199742,35,No Definido/Transitorio
848.1932773109245,40.09004833745366,51.45562059229325,51.89490652692676,26.47058823529412,73.52941176470588,40.71428571428578,8.5,125.0,0.8234321274051176,-2.3241934396482757,35,No Definido/Transitorio
847.5210084033613,98.8669944941832,128.30371358220995,130.28944752378996,20.588235294117645,61.76470588235294,72.85714285714278,6.8,406.25,0.9501820221553795,-4.45068313781523,35,No Definido/Transitorio
741.4285714285716,138.43726549201466,159.4163967108756,161.40907191161747,28.205128205128204,64.1025641025641,174.28571428571433,13.0,320.3125,0.8447364649299217,-2.535808039497407,40,No Definido/Transitorio
828.4897959183673,102.39739856925392,49.27688387584797,49.04664247781134,31.428571428571427,57.14285714285714,172.1428571428571,11.666666666666666,54.6875,0.9780922324377646,-4.082087537887522,36,No Definido/Transitorio
857.3529411764706,71.49099640405721,52.19072107883268,52.9946584862728,32.35294117647059,70.58823529411765,113.57142857142856,17.0,46.875,0.9033610097302439,-3.8489171587075854,35,No Definido/Transitorio
931.1059907834101,39.124273790690275,42.040634700089825,42.71758887997437,29.03225806451613,61.29032258064516,64.28571428571422,7.75,101.5625,0.8489743113936062,-2.8054854220316456,32,No Definido/Transitorio
818.530612244898,76.75868057576143,61.191157393019104,62.11136216782173,34.285714285714285,65.71428571428571,104.28571428571433,7.0,70.3125,0.6507277738347904,-4.612518500337772,36,No Definido/Transitorio
758.7218045112782,96.15313987114745,109.16268594261635,110.62845928124335,34.21052631578947,68.42105263157895,158.92857142857144,7.6,250.0,0.814673579589434,-4.030273253800252,39,No Definido/Transitorio
783.3590733590735,86.2195532485688,43.15045134465183,43.74475765713387,18.91891891891892,72.97297297297297,80.0,7.4,156.25,0.9418106068207601,-4.979358664360692,38,No Definido/Transitorio
778.8803088803088,72.72563226963096,45.675827076675056,46.32346379212194,21.62162162162162,54.054054054054056,55.71428571428578,9.25,242.1875,0.9032525944208075,-4.416266845217962,38,No Definido/Transitorio
740.4029304029303,64.55078910107366,40.27963479963339,40.662924783759635,23.076923076923077,61.53846153846154,82.85714285714278,9.75,109.375,0.9273276802689076,-3.756855098781958,40,No Definido/Transitorio
814.8809523809525,36.332406082978146,32.378951518814304,32.8139493742827,16.666666666666664,50.0,48.57142857142867,7.2,78.125,0.9319111434867404,-3.300770076384092,37,No Definido/Transitorio
832.7755102040816,48.835101000131225,34.43071578802667,34.944752496162835,8.571428571428571,48.57142857142857,53.571428571428555,8.75,117.1875,0.9722449945049848,-3.723460573664361,36,No Definido/Transitorio
767.781954887218,37.218066665428836,32.744476972472356,33.19095350387719,10.526315789473683,65.78947368421053,48.92857142857133,6.333333333333333,109.375,0.905388818336599,-3.5867679635725924,39,No Definido/Transitorio
769.4360902255642,74.74504521498534,40.7858545934066,41.288205827212046,21.052631578947366,52.63157894736842,96.07142857142844,12.666666666666666,171.875,0.9681815420073401,-3.9456936024167386,39,Estrés
750.6227106227107,42.24219828539066,30.876038491908442,31.234762011918445,7.6923076923076925,51.28205128205128,58.57142857142844,7.8,109.375,0.9703102490969414,-2.760614473255115,40,Estrés
644.4444444444445,54.784298075315625,55.20496468760354,55.84303904820512,17.77777777777778,57.77777777777777,57.14285714285711,7.5,140.625,0.7182591523955488,-3.2966334270088007,46,Estrés
735.2747252747251,65.19915276754917,40.80947848030635,41.35552635263661,23.076923076923077,58.97435897435898,97.14285714285711,9.75,0.0,0.9488381908362783,-3.6543542662697774,40,Estrés
706.7595818815331,48.48734780294406,62.068099532624935,62.83482787379845,21.951219512195124,56.09756097560976,54.28571428571445,6.833333333333333,125.0,0.9003796883333125,-2.432761498758695,42,Estrés
740.0732600732601,43.00344541681946,31.35586258026596,31.58706870535859,12.82051282051282,43.58974358974359,62.85714285714289,7.8,148.4375,0.9384214502828327,-3.453906998465708,40,Estrés
745.6390977443609,66.82868034908617,48.11848769699649,48.75451274207138,23.684210526315788,55.26315789473685,97.49999999999989,12.666666666666666,93.75,0.9705933245371403,-3.377566533966891,39,Estrés
771.5057915057915,73.74955009351679,46.650871962647,46.925907730448124,18.91891891891892,43.24324324324324,142.8571428571429,7.4,218.75,0.9595582612835527,-4.2395858488323235,38,Estrés
739.5970695970697,73.34566332414282,38.893807337343745,39.41572951149123,12.82051282051282,43.58974358974359,110.71428571428578,9.75,101.5625,0.9628402716950719,-4.584755343219398,40,Estrés
804.5238095238094,72.32297176484079,29.486370820091462,29.912007237647547,11.11111111111111,44.44444444444444,98.21428571428578,12.0,78.125,0.9516992435531094,-5.402665442962759,37,Estrés
756.5413533834586,91.50131733064259,96.23812166587656,97.56548111262194,13.157894736842104,39.473684210526315,151.78571428571422,9.5,195.3125,0.8711792654810396,-4.3579945665478075,39,Estrés
691.4625850340136,63.31908818315573,77.73645666528073,78.67463921208547,14.285714285714285,42.857142857142854,75.35714285714278,8.4,218.75,0.6756335440106082,-3.031133827798647,43,Estrés
749.0601503759399,93.7873081144373,121.973114685213,123.60975369258946,18.421052631578945,55.26315789473685,98.21428571428567,9.5,187.5,0.9234247636219204,-3.172218479522786,39,Estrés
859.9567099567099,74.3281857027182,47.03179558467194,47.38452232419394,24.242424242424242,69.6969696969697,108.57142857142856,6.6,117.1875,0.8954119595512182,-3.7088715864776276,34,Estrés
796.138996138996,52.154124532648346,28.11137551075323,28.44996858813765,8.108108108108109,40.54054054054054,74.28571428571433,9.25,132.8125,0.8983037952719409,-4.421098970599708,38,Estrés
786.3706563706564,36.258699158867586,29.563145837964107,29.795844593453843,2.7027027027027026,51.35135135135135,47.14285714285711,7.4,78.125,0.9403602285559683,-2.8073404889849414,38,Estrés
821.4693877551019,28.329830875620537,28.815137078451322,29.23948415274904,5.714285714285714,42.857142857142854,38.57142857142867,4.375,62.5,0.9425527757432116,-2.750115204524377,36,Estrés
808.0408163265306,70.61816378054999,43.89294517635498,44.49123475254543,22.857142857142858,37.142857142857146,114.28571428571422,8.75,242.1875,0.9542452646640479,-4.564298991943712,36,Estrés
808.452380952381,31.123519553349944,26.949904936628165,27.171085340486567,5.555555555555555,38.88888888888889,37.142857142857224,4.5,101.5625,0.9203253121828988,-2.6755838066959234,37,Estrés
821.1428571428571,60.34892540152516,34.19806724248095,34.40540182134162,20.0,54.285714285714285,65.0,8.75,164.0625,0.9835910182788973,-4.247365589406923,36,Estrés
777.915057915058,73.54298617620633,50.40538609956089,51.04708599579541,35.13513513513514,64.86486486486487,124.28571428571433,12.333333333333334,15.625,0.9870081316313959,-3.29976624179047,38,No Definido/Transitorio
807.3015873015872,44.6675804556747,41.967639900687985,42.56221046375489,22.22222222222222,58.333333333333336,76.07142857142867,9.0,93.75,0.9080652262362299,-3.1170199261987293,37,No Definido/Transitorio
803.8095238095236,49.338481069908454,35.710203848369844,36.22387940577671,22.22222222222222,52.77777777777778,80.0,12.0,46.875,0.9862994259649754,-2.9009646589133067,37,No Definido/Transitorio
816.5079365079365,34.6316635725329,37.57208814506023,38.10972613657527,22.22222222222222,50.0,39.642857142857224,7.2,62.5,0.9104557016273486,-2.9724758757216874,37,No Definido/Transitorio
770.7894736842104,61.8163189927521,41.32392588469774,41.72507397386676,21.052631578947366,52.63157894736842,65.35714285714278,7.6,78.125,0.932503701479122,-3.7762596777042674,39,No Definido/Transitorio
799.8015873015875,62.69287699090564,41.06597124346503,41.5268941293658,16.666666666666664,63.888888888888886,97.85714285714289,9.0,125.0,0.9548695652340523,-3.8212161493914225,37,No Definido/Transitorio
727.7142857142858,205.85994029513125,310.877457050099,314.9388598512101,60.0,75.0,96.78571428571433,8.0,343.75,0.9386355780243583,-1.766259767166142,41,No Definido/Transitorio
822.1428571428572,100.63790706385154,122.9899614287479,124.72985729421218,52.77777777777778,83.33333333333334,117.14285714285722,9.0,250.0,0.8200558931626838,-3.2754669540398815,37,No Definido/Transitorio
870.7359307359308,47.56992867128319,59.27280410207071,60.12248853288127,33.33333333333333,72.72727272727273,61.428571428571445,11.0,78.125,0.9544591897558045,-2.2392002985433113,34,No Definido/Transitorio
881.4718614718614,54.74020838787113,54.67377743283805,55.484115567574825,42.42424242424242,69.6969696969697,71.42857142857133,6.6,203.125,0.9275993190884634,-2.6716429267195165,34,No Definido/Transitorio
825.7142857142858,52.6534799949845,39.34640079730649,39.76933382258684,20.0,65.71428571428571,94.28571428571422,7.0,31.25,0.954895347755326,-3.3331207873364326,36,No Definido/Transitorio
805.4285714285714,97.11801461884093,58.945312111549384,59.7192310283869,25.71428571428571,71.42857142857143,135.0,8.75,140.625,0.9547397648511289,-4.546399381278789,36,No Definido/Transitorio
829.1428571428571,57.43434061075793,47.790936268666826,48.31801129726525,22.857142857142858,65.71428571428571,67.14285714285722,8.75,171.875,0.9589349583563421,-2.5613786662006794,36,No Definido/Transitorio
841.9747899159663,64.80551247566397,53.5741702040158,54.230470010419594,35.294117647058826,79.41176470588235,94.64285714285711,8.5,132.8125,0.9436600243174177,-2.916789425393799,35,No Definido/Transitorio
796.1111111111111,110.43862251225171,114.30408015694272,115.95284643538149,25.0,58.333333333333336,75.71428571428567,9.0,476.5625,0.9220674595519487,-2.413560755442262,37,No Definido/Transitorio
802.6984126984127,86.20659825914905,46.36086114454887,46.92948913828397,33.33333333333333,58.333333333333336,140.3571428571429,12.0,62.5,0.9760205177190925,-4.678572907028509,37,No Definido/Transitorio
846.2605042016808,122.13571266205655,183.98445122655184,186.67499387844538,44.11764705882353,73.52941176470588,123.92857142857144,11.333333333333334,109.375,0.8864453853417381,-3.3452021563264243,35,No Definido/Transitorio
723.5357142857143,124.55845090682402,115.99906168984803,117.51486774264441,35.0,75.0,127.14285714285722,13.333333333333334,445.3125,0.825510393336418,-2.571450520332765,41,No Definido/Transitorio
705.4355400696863,238.90849147144763,380.70497174348026,385.49932790577367,48.78048780487805,65.85365853658537,208.57142857142844,10.25,250.0,0.7296253296808033,-2.2580003792667314,42,No Definido/Transitorio
789.034749034749,234.9159289127117,370.52813627745275,375.5990593507438,70.27027027027027,83.78378378378379,211.42857142857144,18.5,70.3125,0.8061127919791565,-2.0637323221851,38,No Definido/Transitorio
723.6785714285713,195.20518462009173,248.55900773143878,251.80774706127252,35.0,70.0,46.07142857142867,8.0,195.3125,0.8178879982568135,-2.8413654679716345,41,No Definido/Transitorio
773.2432432432432,171.33848448033828,227.25900494545468,230.35447888209836,54.054054054054056,75.67567567567568,192.8571428571429,12.333333333333334,265.625,0.871725416730825,-2.094970650501519,38,No Definido/Transitorio
797.6833976833976,237.49265446364754,291.7873414110176,295.8836123933335,59.45945945945946,72.97297297297297,179.9999999999999,12.333333333333334,179.6875,0.9787312261707046,-2.4699857474178537,38,No Definido/Transitorio
874.6320346320347,65.09709222540471,47.623362899710806,47.93008060423132,33.33333333333333,66.66666666666666,102.85714285714278,11.0,93.75,0.9190335626606478,-3.721087738249858,34,No Definido/Transitorio
810.0396825396824,87.83464859613845,102.93874314197812,104.338538480491,33.33333333333333,75.0,113.21428571428567,9.0,203.125,0.9144248080286813,-3.7360908076176966,37,No Definido/Transitorio
855.3361344537816,61.01827014687229,47.76967518893294,48.493579387438665,20.588235294117645,64.70588235294117,96.78571428571422,8.5,101.5625,0.908935210132019,-4.1360133718492085,35,No Definido/Transitorio
831.9327731092438,73.01602432788799,80.4993690845187,81.73042517633966,52.94117647058824,73.52941176470588,96.42857142857133,8.5,156.25,0.6041072856616866,-3.363837624222863,35,No Definido/Transitorio
881.1688311688312,82.73964463341065,108.8913870959199,110.5232389868998,60.60606060606061,81.81818181818183,88.57142857142844,8.25,140.625,0.7000201005078763,-3.378524905685349,34,No Definido/Transitorio
819.3650793650794,38.35303925823059,40.93228426369256,41.455470010917786,19.444444444444446,55.55555555555556,66.42857142857144,9.0,46.875,0.8604440461192948,-2.659303659753129,37,No Definido/Transitorio
921.0599078341015,75.4018420731114,60.63440122772628,61.6700298960506,29.03225806451613,64.51612903225806,112.85714285714289,7.75,179.6875,0.9651352799159532,-3.7750916186466954,32,No Definido/Transitorio
936.0829493087555,43.332236106363325,42.760207835669625,43.252256384878926,22.58064516129032,77.41935483870968,57.14285714285711,5.166666666666667,132.8125,0.9799429681232352,-2.048152669589004,32,No Definido/Transitorio
900.0446428571429,65.04314097292222,86.72522118430571,88.0292109437111,25.0,62.5,69.99999999999989,8.0,171.875,0.9539100105290479,-3.9292503946844435,33,No Definido/Transitorio
879.1071428571429,82.57599687584461,79.51507075986298,80.65594046899668,37.5,62.5,87.142857142857,10.666666666666666,148.4375,0.8569442906058203,-2.9759017249652424,33,No Definido/Transitorio
883.75,60.23407271196846,48.59310982619493,49.09655590389078,37.5,71.875,73.57142857142867,6.4,179.6875,0.8916425614878624,-3.3088355634962903,33,No Definido/Transitorio
800.7755102040817,95.51298464057713,52.57647491307983,53.290588886185546,22.857142857142858,68.57142857142857,165.0,8.75,62.5,0.8561477546792476,-4.085633972270173,36,No Definido/Transitorio
861.038961038961,59.57253417018833,61.209638930148785,62.03323067808709,45.45454545454545,75.75757575757575,92.85714285714289,11.0,78.125,0.9397412121561982,-3.4777471793971357,34,No Definido/Transitorio
847.0168067226891,48.84360670067117,63.2137659870532,64.1920614118235,29.411764705882355,70.58823529411765,63.928571428571445,8.5,54.6875,0.8008597422478422,-4.098947064246007,35,No Definido/Transitorio
819.4693877551019,61.696781786957374,47.60595057986182,48.30136954403078,25.71428571428571,62.857142857142854,77.14285714285722,7.0,140.625,0.9793018106441226,-3.5394348755124843,36,No Definido/Transitorio
857.2689075630252,67.930234180203,50.96714597736997,51.6901267383467,38.23529411764706,76.47058823529412,88.21428571428567,11.333333333333334,195.3125,0.8878007578892583,-3.6514660188547374,35,Meditación
834.2857142857142,121.7183886948007,126.91817556723592,127.68660391856058,45.714285714285715,68.57142857142857,135.71428571428567,8.75,437.5,0.8706850956618344,-3.5318495446718106,36,Meditación
757.2527472527472,171.02659155161862,193.4302262231944,195.91459793308294,48.717948717948715,84.61538461538461,70.0,13.0,390.625,0.9439477133806338,-2.3366813682624747,40,Meditación
856.1764705882352,63.30685309280464,54.42849757411675,55.04070990134513,29.411764705882355,79.41176470588235,85.35714285714278,8.5,203.125,0.9435104159015647,-2.6649812384052174,35,Meditación
886.8398268398269,160.74394868151083,244.0720661390561,247.97083011360115,54.54545454545454,66.66666666666666,137.1428571428571,6.6,265.625,0.5112283464125467,-2.7946468225012677,34,Meditación
929.7695852534564,50.940937888416464,67.62240098995495,68.74540054561034,41.935483870967744,74.19354838709677,76.42857142857156,6.2,148.4375,0.9649106325720297,-2.2176114948712415,32,Meditación
903.4821428571429,78.82358991981567,59.80217552479471,60.650775493125316,37.5,71.875,101.78571428571445,8.0,101.5625,0.9936520289834911,-2.2255899313421925,33,Meditación
921.6517857142857,75.35573687726763,71.56300712984851,72.57627860953812,50.0,65.625,117.85714285714278,10.666666666666666,101.5625,0.96641167934519,-2.461595547145067,33,Meditación
881.0822510822511,65.10394975226697,77.03572256440778,78.23933536119593,45.45454545454545,78.78787878787878,64.28571428571422,5.5,164.0625,0.9089139917243614,-2.082323369863222,34,Meditación
918.3410138248847,71.74510509667162,99.21665978166818,100.91112023554253,38.70967741935484,90.32258064516128,73.57142857142867,5.166666666666667,171.875,0.8740476629874913,-2.0323668200578586,32,Meditación
915.1612903225806,50.7879109020028,70.34318208118057,71.54335604730119,32.25806451612903,77.41935483870968,63.57142857142867,10.333333333333334,54.6875,0.94651244188052,-2.1133753268977116,32,Meditación
876.7857142857142,67.48661876971654,58.21516919970794,59.13991102585957,43.75,75.0,75.35714285714278,10.666666666666666,101.5625,0.9737987879553557,-2.6466285974301615,33,Meditación
925.852534562212,81.62078803393305,83.84022705998233,85.16932672823775,48.38709677419355,80.64516129032258,122.85714285714289,10.333333333333334,23.4375,0.9678812803573082,-2.377947626240079,32,Meditación
871.5584415584415,72.05295285303927,51.3801855717528,52.11112600575702,30.303030303030305,60.60606060606061,118.57142857142844,11.0,70.3125,0.976882681483342,-4.394832891103537,34,No Definido/Transitorio
815.5918367346937,79.93347431179753,56.21996330227801,56.417876839654966,34.285714285714285,77.14285714285715,90.0,7.0,132.8125,0.9827360195575116,-2.777192936091968,36,No Definido/Transitorio
825.9243697478993,43.49330495744555,49.201414824974506,49.90358669843246,17.647058823529413,64.70588235294117,52.500000000000114,6.8,54.6875,0.9217751132628959,-2.213951871839214,35,No Definido/Transitorio
832.2448979591835,48.08491602752401,56.521304506754426,57.282059249878415,42.857142857142854,60.0,62.857142857143,7.0,62.5,0.9448864966212824,-2.8371002532248903,36,No Definido/Transitorio
869.047619047619,56.63464481390591,74.15166476725321,75.33680136927102,30.303030303030305,63.63636363636363,55.714285714285666,6.6,70.3125,0.9613015259851431,-2.08398434769286,34,No Definido/Transitorio
821.1836734693877,154.89588561309893,98.30160365992431,99.59334720075398,31.428571428571427,62.857142857142854,225.0,11.666666666666666,304.6875,0.9138338853640221,-3.6076872301317033,36,No Definido/Transitorio
892.1428571428571,65.44323985856985,71.11683124715235,72.21146985899706,50.0,81.25,71.78571428571422,8.0,140.625,0.9401637102408185,-2.7721709343562715,33,No Definido/Transitorio
818.326530612245,160.79801207101,166.2608705343152,168.67962435256732,62.857142857142854,91.42857142857143,114.28571428571422,11.666666666666666,406.25,0.8904805282808764,-2.2574347413391833,36,No Definido/Transitorio
807.0204081632652,220.43402876108513,276.47346171018296,280.5797358632463,65.71428571428571,82.85714285714286,267.1428571428572,11.666666666666666,0.0,0.9085880023283104,-2.1267875272462438,36,No Definido/Transitorio
809.469387755102,225.49454406143593,295.4988457289315,299.93995785590187,65.71428571428571,85.71428571428571,200.0,7.0,531.25,0.8954723994127156,-2.2810106749715984,36,No Definido/Transitorio
890.5627705627705,65.95350421785575,95.93491362929984,97.37062237001547,42.42424242424242,63.63636363636363,74.28571428571422,11.0,132.8125,0.8884230098107405,-1.9475102624376177,34,Diversión
864.7619047619047,63.76542097065326,57.5543221661067,58.45723385175201,27.27272727272727,60.60606060606061,88.57142857142844,8.25,125.0,0.9195980057234479,-3.7095243755741527,34,Diversión
851.3025210084035,139.7003452915913,181.87540843376794,184.5985569873335,58.82352941176471,73.52941176470588,100.71428571428567,11.333333333333334,562.5,0.8126078221814825,-1.837593294857536,35,Diversión
848.7394957983194,150.21146286235378,190.1805606261434,193.12922726248755,47.05882352941176,70.58823529411765,66.78571428571433,6.8,531.25,0.7403266631768575,-2.371313007090639,35,Diversión
972.4285714285714,82.12959841592185,103.92304845413267,105.70429988783964,60.0,83.33333333333334,119.64285714285711,10.0,117.1875,0.8404377588520144,-2.4570052397252877,31,Diversión
906.25,65.99693770700104,80.89891611168079,81.93139816229024,40.625,68.75,70.71428571428578,6.4,101.5625,0.8386930394604237,-1.7970182543540105,33,Diversión
903.0357142857142,43.4971414768338,35.64140028237128,36.09839526740986,18.75,62.5,52.14285714285711,8.0,109.375,0.8761538573624728,-3.4430166643084035,33,Diversión
875.4978354978356,76.01869501209548,79.60521211527775,80.76651994428424,30.303030303030305,75.75757575757575,65.71428571428567,8.25,140.625,0.8601452014689489,-2.8297769846374514,34,Diversión
858.1932773109245,77.33846358523903,105.68386130581672,107.30172204923356,38.23529411764706,58.82352941176471,81.78571428571422,8.5,0.0,0.7838681027938355,-2.986014978146632,35,Diversión
929.2626728110598,60.70881876534295,52.53440725446734,53.38189789828647,29.03225806451613,67.74193548387096,63.57142857142867,6.2,117.1875,0.8922844152498035,-3.8840321180768944,32,Diversión
920.2764976958524,88.20308921027969,110.36766015533382,111.61515472063915,38.70967741935484,70.96774193548387,100.71428571428578,6.2,156.25,0.9769763522124519,-4.014824590666542,32,Diversión
921.0599078341014,62.411807427647695,75.81978274686834,76.99537382790234,51.61290322580645,80.64516129032258,92.14285714285734,15.5,70.3125,0.8990419620988577,-3.2918459854551116,32,Diversión
817.8367346938776,82.37936097758103,49.90687606444032,50.43571295044779,37.142857142857146,54.285714285714285,129.28571428571433,8.75,62.5,0.9460196107887439,-4.585594551743926,36,No Definido/Transitorio
952.4285714285713,74.02868569290368,93.13977449642121,94.77799959271151,33.33333333333333,80.0,95.71428571428567,7.5,132.8125,0.9625396496016844,-2.550620586533169,31,No Definido/Transitorio
879.3939393939394,85.47513535023865,84.03564598382263,85.29115027948306,42.42424242424242,69.6969696969697,111.42857142857133,11.0,78.125,0.9760191901549424,-2.3629473566622545,34,No Definido/Transitorio
954.4761904761906,87.80434821558757,107.73302158988534,109.49863809310368,43.333333333333336,76.66666666666667,74.28571428571433,7.5,203.125,0.9835426101608244,-3.3044453105931217,31,No Definido/Transitorio
866.1344537815125,174.1549184220988,249.77763765914386,253.55527050524805,50.0,82.35294117647058,171.42857142857144,11.333333333333334,351.5625,0.8214091526418164,-1.931442724639584,35,No Definido/Transitorio
839.7899159663865,305.09447472864764,441.50071560533706,448.0396686472181,58.82352941176471,85.29411764705883,211.7857142857141,11.333333333333334,546.875,0.6571639870429818,-3.7193833322706964,35,No Definido/Transitorio
783.5521235521235,202.31669053184308,270.6333379835491,274.3161713059842,56.75675675675676,78.37837837837837,299.9999999999999,18.5,23.4375,0.8245071038527878,-1.7558310790665077,38,No Definido/Transitorio
886.9196428571429,128.06819559198001,137.73561415808527,139.99652022384717,43.75,71.875,67.85714285714289,8.0,492.1875,0.7844713338451297,-2.1066711126904294,33,No Definido/Transitorio
866.0084033613444,168.266574225112,178.02270671565978,180.78290793684744,58.82352941176471,73.52941176470588,114.99999999999989,6.8,625.0,0.5978511374073945,-3.026451391781447,35,No Definido/Transitorio
926.589861751152,94.44263811324717,83.84834057801663,85.2717228252249,41.935483870967744,83.87096774193549,152.85714285714278,10.333333333333334,85.9375,0.9383190675589222,-3.7757789482775745,32,No Definido/Transitorio
962.3809523809523,86.98348774630377,114.55632985287025,116.56846700436905,40.0,70.0,107.857142857143,7.5,218.75,0.9224723319624032,-2.4693217925301734,31,Meditación
910.2304147465437,94.41268274525187,119.8763535316887,121.82943588204597,54.83870967741935,74.19354838709677,97.85714285714278,7.75,156.25,0.5884330538267539,-4.093981755162504,32,Meditación
900.5803571428571,64.64147273003888,98.29989984437466,99.85967771681615,34.375,59.375,36.78571428571422,4.571428571428571,171.875,0.8948070943749319,-1.9048725205593087,33,Meditación
845.5882352941177,112.07017395166218,62.94464590211572,63.73067873867553,29.411764705882355,64.70588235294117,135.3571428571429,11.333333333333334,195.3125,0.8679259105522897,-4.654466173043144,35,Meditación
907.5892857142857,104.61153413649492,76.27736021500299,77.46686238959235,34.375,68.75,114.28571428571433,10.666666666666666,148.4375,0.942550057380004,-4.136803954482254,33,Meditación
849.7899159663866,62.71346463084188,68.77764806404777,69.78374028499235,26.47058823529412,64.70588235294117,55.71428571428555,6.8,125.0,0.8700407279925795,-2.1308706557086996,35,Meditación
878.961038961039,113.16823800326829,87.55938218239817,88.48264419961481,57.57575757575758,72.72727272727273,171.42857142857144,11.0,304.6875,0.9790132587721553,-4.081534378812459,34,Meditación
940.6190476190475,78.42097851329625,64.24355486749363,65.37446942529616,36.666666666666664,73.33333333333333,130.0,10.0,210.9375,0.9594851621260099,-2.6907992861847863,31,Meditación
857.7922077922078,54.02438379590185,54.978544052406946,55.79411671057119,33.33333333333333,63.63636363636363,77.14285714285711,6.6,46.875,0.9859790793245868,-2.859119767924735,34,Meditación
884.1071428571429,64.1044551636122,87.3179475430661,88.73163252959526,46.875,68.75,80.35714285714289,6.4,148.4375,0.8440463251981388,-2.1567867509522736,33,Meditación
902.0982142857142,51.646981657069894,60.65041367867442,61.65289658782885,31.25,71.875,66.78571428571433,8.0,125.0,0.9813235946268416,-2.8029265606023315,33,Meditación
890.8482142857142,39.21692238456067,40.62545892787826,41.18802990347296,18.75,68.75,66.07142857142856,6.4,70.3125,0.990498118747945,-2.1063491683435744,33,Meditación
914.1013824884792,61.51460413458369,91.58134557399153,93.14139894292084,45.16129032258064,58.06451612903226,55.714285714285666,10.333333333333334,125.0,0.9175668908893821,-2.067245291714433,32,No Definido/Transitorio
952.952380952381,45.103576683047706,43.24455439555147,44.00988994748688,20.0,66.66666666666666,61.428571428571445,6.0,93.75,0.9972003313744673,-3.2153681972725736,31,No Definido/Transitorio
953.6666666666666,67.26451961727807,93.21416775184579,94.82964253781834,33.33333333333333,73.33333333333333,80.35714285714289,15.0,140.625,0.9333661503564595,-1.9330754081050128,31,No Definido/Transitorio
907.8571428571429,80.33914288928115,70.80557808594082,71.94910180082262,53.125,81.25,121.07142857142867,10.666666666666666,85.9375,0.9823303048989152,-2.6772261437360743,33,No Definido/Transitorio
941.3824884792626,70.59656759782483,59.275099451337816,60.225181478897035,38.70967741935484,67.74193548387096,100.0,7.75,23.4375,0.9889792503029265,-3.1952564130259318,32,No Definido/Transitorio
912.7649769585253,162.35802190442308,228.1968657186367,232.0952761645994,61.29032258064516,87.09677419354838,184.28571428571422,10.333333333333334,265.625,0.7592122920698294,-1.85631490222789,32,No Definido/Transitorio
955.2380952380953,68.8421721285913,59.44145370038896,60.2134202373224,36.666666666666664,60.0,65.71428571428567,7.5,226.5625,0.956857781760811,-2.4574774826477452,31,No Definido/Transitorio
847.8354978354978,145.41992379395595,105.15537580753771,106.31848758875367,39.39393939393939,63.63636363636363,188.57142857142856,16.5,0.0,0.7898954486675487,-4.562361077675887,34,No Definido/Transitorio
999.9999999999998,96.74053007261308,102.18512094135299,104.11826365401562,50.0,67.85714285714286,82.5,9.333333333333334,265.625,0.9730282884318144,-2.5561890505797917,29,No Definido/Transitorio
892.7678571428571,165.05786784236872,99.60289818669405,98.3446488544542,50.0,65.625,125.71428571428567,10.666666666666666,531.25,0.9430090107472363,-3.6244867073315024,33,No Definido/Transitorio
967.5238095238095,91.58386851964539,92.82189554599489,93.95245306117305,50.0,76.66666666666667,116.42857142857144,10.0,85.9375,0.9894887982905519,-2.754749179155984,31,No Definido/Transitorio
914.7465437788017,81.00507004941589,66.46977728650072,67.60047387080994,32.25806451612903,70.96774193548387,112.85714285714278,15.5,46.875,0.9321014858047983,-3.913966706832183,32,No Definido/Transitorio
829.8319327731093,80.05777498343154,57.39231264743048,58.27679696873418,38.23529411764706,73.52941176470588,110.71428571428578,8.5,54.6875,0.9244431037201334,-3.4904475109642914,35,No Definido/Transitorio
788.918918918919,45.64653387755334,47.00919001193521,47.61067953684842,27.027027027027028,64.86486486486487,48.571428571428555,7.4,85.9375,0.9658250352041727,-2.170662889397459,38,No Definido/Transitorio
895.2232142857142,96.99542171382656,77.97258173424905,79.2597970399615,50.0,78.125,154.64285714285722,10.666666666666666,281.25,0.9698011182404117,-3.213385481302279,33,No Definido/Transitorio
887.965367965368,91.04413477774025,86.80445124014112,88.19003985909582,54.54545454545454,75.75757575757575,94.2857142857141,6.6,101.5625,0.9912052921993806,-2.5190611498620727,34,No Definido/Transitorio
869.1774891774893,103.86413706002304,60.10938158974888,61.05171886657679,45.45454545454545,69.6969696969697,162.8571428571429,11.0,23.4375,0.9892686652469311,-4.666831309444533,34,No Definido/Transitorio
873.8095238095239,63.65130081340125,73.75540450622958,74.87018334984033,30.303030303030305,60.60606060606061,65.71428571428567,8.25,93.75,0.9767531976249434,-2.040701546871317,34,No Definido/Transitorio
856.7647058823528,136.52924995925883,89.975603097462,91.34205609751301,47.05882352941176,76.47058823529412,149.9999999999999,8.5,109.375,0.9858357999183776,-4.481064121543008,35,No Definido/Transitorio
840.2100840336135,77.98968610190383,62.89304366342297,63.71366450884247,55.88235294117647,79.41176470588235,112.5,8.5,125.0,0.927995813722199,-3.9634640885435037,35,Baseline
906.3839285714287,112.35112854903126,93.99585384382033,95.35832656600317,65.625,84.375,122.14285714285711,6.4,179.6875,0.9861723133083059,-3.3681909998590953,33,Baseline
1093.901098901099,93.34295569744914,98.36666101886351,100.38080554791829,53.84615384615385,73.07692307692307,142.5,13.0,93.75,0.9404469494558579,-2.683374873541853,27,Baseline
1107.5274725274726,96.53639067872139,117.16376120104503,119.41985614133155,76.92307692307693,92.3076923076923,141.78571428571445,8.666666666666666,242.1875,0.9761694606575719,-2.199287502562927,27,Baseline
1028.469387755102,80.66047142813888,94.15535320234906,95.94226852974226,60.71428571428571,82.14285714285714,104.28571428571422,9.333333333333334,101.5625,0.9857007941167824,-2.035750840680128,29,Baseline
1082.857142857143,155.10417828817177,163.83814810815642,166.19791905833156,69.23076923076923,84.61538461538461,127.85714285714278,13.0,85.9375,0.9809490064267933,-2.4740540554249457,27,Baseline
1112.857142857143,112.63993564469406,94.83426287458553,96.19713811668048,64.0,72.0,148.57142857142867,5.0,296.875,0.9757482370223554,-3.357911575544782,26,Baseline
1129.2857142857142,83.27603472298428,110.92082118082516,113.12800527823035,65.38461538461539,84.61538461538461,109.64285714285734,13.0,109.375,0.9599759082530193,-2.1890752177679227,27,Baseline
1104.010989010989,169.05210848911466,186.67378509264856,189.94180992204582,73.07692307692307,88.46153846153845,235.0,13.0,0.0,0.9826174362411957,-2.4734171677859815,27,Baseline
1137.7142857142856,85.06700040452309,97.71452937869927,99.79215311993391,52.0,84.0,85.714285714286,8.333333333333334,140.625,0.955836692171656,-2.706784516550653,26,Baseline
1049.6825396825395,111.8759217766036,110.32562052021784,112.37641388985553,51.85185185185185,85.18518518518519,160.71428571428578,13.5,125.0,0.9796441996812764,-2.9902802574566274,28,Baseline
1066.6483516483515,92.35419158487994,95.21833128261021,97.18038490808915,57.692307692307686,80.76923076923077,122.85714285714289,6.5,187.5,0.9740496075974483,-2.4646557461341354,27,Baseline
956.2857142857141,105.25569550199516,112.93132188348127,114.63938502791159,73.33333333333333,93.33333333333333,124.28571428571422,7.5,125.0,0.9835493715530108,-2.1517689945786773,31,Baseline
1216.024844720497,66.12794216529448,84.22515984562096,86.20627714544524,60.86956521739131,73.91304347826086,80.0,11.5,62.5,0.9951787427243659,-2.3569311763156233,24,Baseline
1167.7380952380952,145.22504438529546,147.0674594259564,150.36684457917335,54.166666666666664,79.16666666666666,180.3571428571429,12.0,335.9375,0.9670008181495006,-3.1552743471160576,25,Baseline
1106.2285714285715,88.22501380688186,99.53933007255235,101.24248450349931,64.0,88.0,108.57142857142867,8.333333333333334,242.1875,0.964105007661139,-2.2122393766019757,26,Baseline
1101.314285714286,125.36811103827851,129.38039153707075,131.99983867054758,80.0,88.0,165.71428571428578,8.333333333333334,375.0,0.9890471043292507,-2.6790587679326223,26,Baseline
1156.904761904762,70.82185389869457,99.7334513251244,101.72656458409858,54.166666666666664,75.0,117.85714285714289,8.0,171.875,0.9768338865781109,-2.174311298285006,25,Baseline
1107.9120879120878,91.232137883158,124.9999183673203,127.33070660110789,69.23076923076923,88.46153846153845,154.9999999999999,8.666666666666666,218.75,0.9690013021885504,-2.1645268367996007,27,Baseline
1099.5054945054947,103.71778215884568,103.56265972731642,105.15204411209697,61.53846153846154,84.61538461538461,161.78571428571422,8.666666666666666,125.0,0.9735932057278031,-2.2190663589268866,27,Baseline
1086.3186813186812,139.97677537796022,150.97776562886907,152.99897736530767,69.23076923076923,92.3076923076923,182.1428571428571,13.0,187.5,0.9518912714157097,-2.4305047285497605,27,Baseline
984.1871921182266,141.8890314130988,117.29861471721335,119.0552718628681,37.93103448275862,68.96551724137932,131.42857142857156,9.666666666666666,242.1875,0.9715141173755117,-3.260313895651751,30,Baseline
1090.3703703703702,170.81235060649527,183.12244661771814,186.74830482860597,77.77777777777779,81.48148148148148,242.8571428571429,13.5,54.6875,0.990685273083452,-2.7363838700894196,28,Baseline
1102.4175824175823,81.87373975925622,94.56020649861779,96.50966607681593,61.53846153846154,76.92307692307693,140.71428571428578,8.666666666666666,218.75,0.9542504435196499,-2.439429497661411,27,Baseline
1072.9100529100529,109.81108473147371,94.00599533304097,95.86727153707001,70.37037037037037,81.48148148148148,152.14285714285734,9.0,132.8125,0.9412854550524619,-3.931289656907681,28,Baseline
1145.2,102.55733422199064,124.50343546335128,127.17354585779842,56.00000000000001,84.0,108.57142857142867,8.333333333333334,351.5625,0.9878785232799355,-2.480564269052386,26,Baseline
1126.9780219780218,136.10639711042208,88.15061322670937,89.29055224987941,76.92307692307693,88.46153846153845,131.42857142857156,8.666666666666666,414.0625,0.984610073946957,-3.1280620341887238,27,Baseline
1131.9428571428573,154.487236114991,171.87590445031046,175.20005888397648,68.0,80.0,141.42857142857156,12.5,15.625,0.9888099729396596,-2.398233466615021,26,Baseline
1165.7142857142856,74.15301094918891,96.73599488453058,98.33985351188613,62.5,83.33333333333334,104.64285714285734,8.0,132.8125,0.9796430873944372,-2.145148646708608,25,Baseline
1126.4,119.08746000000045,128.33808189818845,131.02319278742448,68.0,84.0,158.57142857142867,12.5,164.0625,0.9884636717789255,-2.566442155129795,26,Baseline
1087.142857142857,147.30866578083155,129.09447941482475,131.1587411673937,74.07407407407408,88.88888888888889,246.42857142857144,13.5,203.125,0.983649206665851,-3.380204046264572,28,Baseline
1195.0595238095239,81.82911096523378,93.23192403502357,94.13154927122991,54.166666666666664,75.0,70.71428571428578,4.0,343.75,0.9733524070814809,-2.5853382167092183,25,Baseline
1118.6263736263736,70.71123314534717,86.22987786570678,87.70067367623422,53.84615384615385,76.92307692307693,97.50000000000023,13.0,140.625,0.9582369165397718,-2.385652310780835,27,Baseline
1090.10989010989,116.22913546493506,125.13894318732608,127.7191860144375,61.53846153846154,84.61538461538461,129.28571428571445,8.666666666666666,390.625,0.9861625154048976,-2.980721298628059,27,Baseline
1130.857142857143,160.8433344322746,175.81249675038876,179.13934536464973,72.0,80.0,197.14285714285734,12.5,179.6875,0.9878800765364882,-2.456324577017209,26,Baseline
1176.8,49.13413543867567,68.73863542433766,70.17491982871506,56.00000000000001,76.0,70.0,5.0,148.4375,0.9607072418985759,-2.3834813101379115,26,Baseline
1123.4285714285716,69.36053888012621,91.81929161633289,93.79381062503344,56.00000000000001,80.0,98.57142857142867,6.25,125.0,0.9402733095806317,-2.4080648954707633,26,Baseline
1090.6593406593406,130.2062607161051,126.24563035477101,128.70051720662087,50.0,76.92307692307693,121.78571428571422,8.666666666666666,281.25,0.9764603607716852,-3.0032831962468376,27,Baseline
1141.542857142857,66.67379213621449,81.088995369705,82.78373184692397,52.0,72.0,115.71428571428578,8.333333333333334,210.9375,0.9583728543978368,-2.436843837970727,26,No Definido/Transitorio
1052.6455026455026,176.44300946560176,208.18645790705736,212.29371555477152,66.66666666666666,77.77777777777779,122.85714285714278,9.0,437.5,0.9624255207134087,-2.3976717281549185,28,No Definido/Transitorio
1132.5274725274726,125.89033626967183,153.77083399577145,156.9284251251025,76.92307692307693,88.46153846153845,196.07142857142867,13.0,273.4375,0.9880558568105359,-2.2847441427950965,27,No Definido/Transitorio
1101.9230769230767,137.63598384955688,154.78596150023108,157.61286853087415,65.38461538461539,88.46153846153845,177.14285714285734,13.0,179.6875,0.9802835965830989,-2.342224327002988,27,No Definido/Transitorio
1200.7738095238094,120.75625288842542,162.66224580762469,166.26990228706447,83.33333333333334,87.5,172.8571428571429,12.0,109.375,0.9936334545664589,-2.5135590612336665,25,No Definido/Transitorio
1198.3333333333333,90.4878493087493,137.97656784461353,141.0638144883583,75.0,83.33333333333334,149.28571428571422,12.0,54.6875,0.9635024937354836,-2.1116559819541267,25,No Definido/Transitorio
1189.2261904761906,107.64064831133703,143.1255242974243,146.01929415784326,70.83333333333334,83.33333333333334,132.50000000000023,12.0,132.8125,0.9860395557963832,-2.2852796689610013,25,No Definido/Transitorio
1120.7692307692307,138.13641927337747,142.73137320841266,145.62060480652346,57.692307692307686,80.76923076923077,121.78571428571445,13.0,343.75,0.9802814516112633,-2.8581312574287034,27,No Definido/Transitorio
1130.0571428571427,133.4048362696647,152.42317123472958,155.5246532733829,64.0,76.0,162.8571428571429,8.333333333333334,335.9375,0.92735587222736,-2.777419404142825,26,No Definido/Transitorio
1115.2197802197802,91.15310493906063,118.84134510397656,121.25963037707017,73.07692307692307,80.76923076923077,132.8571428571429,8.666666666666666,148.4375,0.9730400788500839,-2.3133041543411936,27,No Definido/Transitorio
1145.7142857142858,114.37273472720496,121.9467236188023,124.55871530374303,72.0,88.0,140.00000000000023,12.5,273.4375,0.9804591562116021,-2.044938279429607,26,No Definido/Transitorio
950.2380952380951,192.27446491125207,115.33965994804974,116.53282139315002,40.0,66.66666666666666,316.07142857142856,15.0,23.4375,0.9512934513491196,-3.366753903568943,31,No Definido/Transitorio
959.7619047619045,228.19337063771724,116.22250493974342,116.73544435618469,50.0,73.33333333333333,323.92857142857156,15.0,0.0,0.9541761814992271,-4.168605987130446,31,No Definido/Transitorio
1067.037037037037,133.44248105364684,112.27733939631467,114.16241975699526,66.66666666666666,88.88888888888889,185.71428571428578,13.5,210.9375,0.9840058267292253,-3.911903322162738,28,No Definido/Transitorio
1160.9142857142858,147.0277404525589,136.35219752063946,138.30670697305197,76.0,92.0,215.71428571428578,8.333333333333334,398.4375,0.9951356171301604,-2.6672906126726272,26,No Definido/Transitorio
1040.969387755102,107.42013755270031,61.91636032982577,62.67455999811739,39.285714285714285,71.42857142857143,121.7857142857141,9.333333333333334,195.3125,0.9194309215609336,-4.1070294751080185,29,No Definido/Transitorio
791.4285714285713,104.42512348086628,75.55933316267647,76.25330792591888,47.22222222222222,80.55555555555556,154.28571428571422,7.2,54.6875,0.9861847456749638,-3.0627049285820505,37,No Definido/Transitorio
899.3303571428571,145.7269283279335,148.62924256205034,151.05726439103066,56.25,81.25,190.0000000000001,10.666666666666666,85.9375,0.9874058853590925,-2.1833113059773686,33,No Definido/Transitorio
1067.4603174603176,117.96304488329004,140.82371491094344,143.3289461804098,66.66666666666666,81.48148148148148,189.28571428571445,13.5,101.5625,0.9881753414212908,-2.3553749392991623,28,No Definido/Transitorio
1063.968253968254,172.78462439104644,175.26745653053032,177.99825374410216,66.66666666666666,85.18518518518519,243.57142857142867,13.5,125.0,0.9733246853170254,-2.305201477271369,28,No Definido/Transitorio
1096.6483516483515,129.40740432886145,144.54658171577177,147.27451345336422,76.92307692307693,84.61538461538461,178.92857142857133,13.0,93.75,0.9692412712847109,-2.859636342280777,27,No Definido/Transitorio
1088.8461538461538,108.02722198935707,127.3962162639352,129.93737371686169,76.92307692307693,92.3076923076923,161.07142857142867,13.0,281.25,0.9825365996869907,-2.418874144256109,27,No Definido/Transitorio
883.75,107.98760687677544,111.72328979471696,112.72618741421388,59.375,78.125,91.07142857142844,6.4,148.4375,0.9746238232868203,-2.3673280907778365,33,Estrés
651.038961038961,68.80798319344818,31.36659549213093,31.39695091373963,11.363636363636363,40.909090909090914,119.28571428571433,8.8,187.5,0.853385723123255,-4.6804532439886275,45,Estrés
475.0117096018735,21.356422906832698,5.44296337854078,5.371637641252614,0.0,0.0,34.285714285714334,3.588235294117647,0.0,0.8711700877745944,-4.622846007869627,62,Estrés
510.17543859649123,39.15383260345348,10.594569267279518,10.447704003772182,0.0,8.771929824561402,47.14285714285711,11.4,0.0,0.993628882033704,-4.149769472278895,58,Estrés
603.5119047619047,46.541675032552504,25.677954746538163,25.883289679383033,4.166666666666666,29.166666666666668,77.857142857143,8.0,15.625,0.9664638601167715,-3.4038203247768606,49,Estrés
645.7142857142858,72.20744183788675,44.35687621477044,44.6266627226179,15.555555555555555,48.888888888888886,60.0,7.5,117.1875,0.8674066189217781,-3.9696768908759137,46,Estrés
719.9285714285714,101.68283149493227,53.50019684329266,54.17029829971277,37.5,57.49999999999999,98.21428571428578,8.0,93.75,0.9856378624106978,-3.810425768324873,41,Estrés
742.4542124542123,101.93400948550199,61.64631804466522,62.45791685654467,35.8974358974359,71.7948717948718,138.57142857142856,13.0,39.0625,0.9654735998673551,-3.7513991067328623,40,Estrés
610.5059523809524,75.59719660164706,48.68126326386463,49.152130779887216,10.416666666666668,35.41666666666667,72.14285714285711,9.6,31.25,0.9938177605699541,-4.481517975054464,49,Estrés
754.6153846153845,113.86362918593548,112.62205456783568,114.09001355441669,41.02564102564102,58.97435897435898,147.14285714285722,19.5,23.4375,0.7387139093927549,-3.1990198849731164,40,Estrés
767.2932330827068,127.41296607602183,91.75526815019914,92.99949488521993,39.473684210526315,57.89473684210527,222.1428571428571,19.0,0.0,0.9377721704031309,-3.053606377362357,39,Estrés
753.9097744360903,93.18929854034127,73.15858602598581,74.16225344306982,39.473684210526315,71.05263157894737,149.64285714285722,12.666666666666666,54.6875,0.9735287695307828,-3.8567114872082864,39,Estrés
954.9047619047619,140.85377714248125,108.0086529231024,109.57378333419493,50.0,70.0,208.21428571428555,15.0,0.0,0.9835286717772886,-4.444161623205982,31,Estrés
775.7915057915056,85.92496987131368,66.90264358619068,67.84860908267878,43.24324324324324,67.56756756756756,124.28571428571422,12.333333333333334,132.8125,0.9858430507291923,-2.915397236160527,38,Estrés
663.961038961039,68.07047329241794,37.26341283890228,37.696487293217984,13.636363636363635,52.27272727272727,92.85714285714289,8.8,31.25,0.9830706038710487,-3.409876380710052,45,Estrés
612.4924012158056,35.79923819921125,23.844177679845426,24.085379205483786,2.127659574468085,36.17021276595745,38.571428571428555,5.222222222222222,62.5,0.9910659285284898,-3.0025460919570186,48,Estrés
616.7781155015197,41.09791809560352,18.71895537018139,18.870606064528772,0.0,31.914893617021278,59.28571428571422,7.833333333333333,39.0625,0.9752125655446805,-3.8589853488731185,48,Estrés
662.1753246753246,70.26864757570085,36.41244513099411,36.83300841276825,18.181818181818183,54.54545454545454,108.92857142857156,7.333333333333333,39.0625,0.9945760832280687,-3.574137546374137,45,Estrés
717.5714285714287,105.72329433945194,65.74613020428919,65.4562372106902,20.0,50.0,163.21428571428567,10.0,0.0,0.9746446195328051,-4.17755147713305,41,Estrés
766.6541353383458,89.52979845531583,62.24695049648148,62.80944721387358,31.57894736842105,71.05263157894737,104.28571428571433,12.666666666666666,70.3125,0.9835498343063673,-3.6152629295315313,39,Estrés
779.8069498069499,75.85952090416713,52.97391648409997,53.53593684481142,27.027027027027028,54.054054054054056,108.57142857142867,12.333333333333334,171.875,0.9759794265518535,-3.3768336785823863,38,Estrés
788.3397683397682,115.28851391808918,73.84177482801024,74.88399407641836,37.83783783783784,72.97297297297297,160.0,9.25,109.375,0.9774206685127765,-3.4887678235843205,38,Estrés
788.0555555555555,119.64483533072038,90.13336409795856,91.37824995727746,33.33333333333333,77.77777777777779,111.42857142857144,12.0,70.3125,0.9758330690197633,-4.201988929059014,37,No Definido/Transitorio
866.0173160173161,143.59885913142426,90.70444266058496,92.14437536705138,48.484848484848484,84.84848484848484,230.0,16.5,78.125,0.9914556486325387,-3.7208826944639752,34,No Definido/Transitorio
788.6486486486485,159.07682435946847,89.6690185059399,89.72024872942545,40.54054054054054,70.27027027027027,178.57142857142856,12.333333333333334,125.0,0.988890744765997,-4.4793394047081945,38,No Definido/Transitorio
715.4285714285714,135.01485469758867,48.03190985383801,48.40506102179417,20.0,50.0,215.71428571428567,8.0,46.875,0.9425652026289393,-6.160164100632934,41,No Definido/Transitorio
1074.4973544973545,124.1041389967435,153.43272550498136,156.20121467596857,70.37037037037037,85.18518518518519,177.1428571428571,13.5,0.0,0.9758689922390424,-2.2778753950356125,28,No Definido/Transitorio
1068.412698412698,108.52539027758986,144.31617565515654,147.1188927460568,81.48148148148148,96.29629629629629,154.28571428571422,6.75,117.1875,0.9680473385910691,-2.279265030492787,28,No Definido/Transitorio
1029.1326530612246,104.20366365986473,125.29933924091588,127.60585739062958,53.57142857142857,75.0,113.21428571428567,14.0,109.375,0.9475815737128258,-2.742580896520586,29,No Definido/Transitorio
1095.257142857143,100.70222825494083,122.51162654807825,124.98362803165007,56.00000000000001,80.0,138.57142857142867,12.5,31.25,0.9939235908631504,-1.967948031081382,26,No Definido/Transitorio
1054.3386243386242,118.04362967024981,161.64868781761086,164.6412397717989,62.96296296296296,88.88888888888889,169.28571428571422,13.5,171.875,0.9748174461818788,-1.903738371168918,28,No Definido/Transitorio
1082.9100529100529,170.7116333793137,192.40259824549398,196.16298128757506,70.37037037037037,85.18518518518519,254.28571428571445,13.5,117.1875,0.9954941215888673,-2.366446308310474,28,No Definido/Transitorio
1016.0714285714284,110.12370217533193,125.14722999777061,127.07447182962649,60.71428571428571,78.57142857142857,183.57142857142844,14.0,125.0,0.989763983420548,-2.237377899135737,29,No Definido/Transitorio
1028.7244897959185,101.77958435878512,131.83454666601392,134.3230102608195,64.28571428571429,82.14285714285714,97.14285714285711,14.0,218.75,0.9538862914503675,-3.5591094217289627,29,No Definido/Transitorio
994.7290640394087,137.9420291938466,135.910974549208,138.32418077527308,51.724137931034484,86.20689655172413,140.0,9.666666666666666,367.1875,0.9938008708300503,-2.862852735110097,30,No Definido/Transitorio
923.4562211981568,78.09968703374226,80.87783682688305,82.26023597526947,58.06451612903226,67.74193548387096,93.57142857142856,7.75,164.0625,0.97879311366572,-2.6137658178862386,32,No Definido/Transitorio
888.2589285714286,125.85859667164323,106.29278753531517,107.57938722463847,43.75,65.625,148.21428571428578,10.666666666666666,70.3125,0.9960437413902165,-2.756855860047634,33,No Definido/Transitorio
902.7678571428571,85.97574370481354,82.9055952405243,83.99805111797112,46.875,68.75,156.78571428571422,8.0,54.6875,0.9486271577953668,-3.1951097898409513,33,No Definido/Transitorio
838.6974789915967,100.12198351418604,75.08354448096043,76.22426367982328,41.17647058823529,76.47058823529412,174.28571428571422,11.333333333333334,148.4375,0.9880995134539993,-3.9936641518889937,35,No Definido/Transitorio
938.6175115207375,117.85294876864558,100.88823208952401,102.61155912771112,41.935483870967744,67.74193548387096,176.42857142857122,10.333333333333334,281.25,0.9880252798938423,-3.16566995613419,32,No Definido/Transitorio
906.1160714285714,92.45551881409607,70.04982708887323,71.17925767891755,50.0,75.0,165.35714285714278,10.666666666666666,125.0,0.9794421941470866,-3.282641674296914,33,No Definido/Transitorio
886.1904761904763,176.9229866277384,160.09224859818943,162.45113079926278,45.45454545454545,75.75757575757575,247.1428571428571,11.0,78.125,0.9799072596558743,-2.9133309712475297,34,No Definido/Transitorio
881.4285714285714,128.1048080156818,84.29933304018725,85.64239496690993,42.42424242424242,63.63636363636363,170.0,11.0,234.375,0.9607143020056733,-4.250845916873958,34,No Definido/Transitorio
666.7532467532467,35.166380097558864,23.456631765912476,23.48032183753329,4.545454545454546,25.0,55.357142857143,8.8,39.0625,0.9520481454858318,-3.367843376959639,45,No Definido/Transitorio
953.4285714285714,177.58113587042476,191.49656905697066,194.401445950369,66.66666666666666,90.0,133.92857142857156,10.0,164.0625,0.9867018606600968,-2.9072574651535574,31,No Definido/Transitorio
1145.7714285714285,166.70041154983497,145.20891588225797,148.29703469676025,56.00000000000001,72.0,237.1428571428571,12.5,132.8125,0.9896784097829902,-3.581377517434601,26,No Definido/Transitorio
1143.8857142857144,197.61095221513952,264.7259846308547,270.3852058973921,72.0,84.0,278.57142857142844,12.5,62.5,0.9269048558328103,-2.5016780926897413,26,No Definido/Transitorio
1160.0595238095239,155.75529642104038,182.5647895837007,186.65941150621825,58.333333333333336,87.5,135.714285714286,8.0,437.5,0.9623277428535576,-2.2804611263565877,25,No Definido/Transitorio
1155.0857142857144,173.48424226114938,202.23454087719418,206.4718911182492,64.0,84.0,252.8571428571429,8.333333333333334,453.125,0.9927483762245374,-2.938066126382092,26,No Definido/Transitorio
1042.4338624338623,175.46655225409637,184.59191700661174,188.00354884923266,62.96296296296296,88.88888888888889,305.71428571428555,27.0,0.0,0.9579770219547542,-3.0281726854430424,28,No Definido/Transitorio
1158.0000000000002,73.49047788751994,86.45316454511048,88.19788659062947,36.0,56.00000000000001,85.714285714286,8.333333333333334,242.1875,0.9489642087885471,-2.6864405521689054,26,No Definido/Transitorio
1178.452380952381,136.9958559122107,122.35343802972184,124.34894579788528,66.66666666666666,87.5,141.07142857142844,12.0,414.0625,0.9738592591959975,-2.1708348258632224,25,No Definido/Transitorio
1186.0714285714287,170.56004102774477,214.8836378536389,219.69840070222173,75.0,79.16666666666666,163.57142857142867,8.0,398.4375,0.9901142662527085,-2.602739398188491,25,No Definido/Transitorio
1157.2571428571428,146.84083659703455,175.525692442682,179.28824039529258,76.0,88.0,154.28571428571422,12.5,328.125,0.9830617521393974,-2.0750897611286327,26,No Definido/Transitorio
1201.8012422360248,102.73280489022504,106.37168356726829,108.77257755708649,65.21739130434783,86.95652173913044,116.4285714285711,7.666666666666667,304.6875,0.9900233979329794,-2.414425683384889,24,No Definido/Transitorio
1153.0357142857144,114.5356835396907,138.8579991283059,141.9593471364699,75.0,87.5,176.4285714285718,12.0,203.125,0.9602932970713554,-2.457196697347656,25,No Definido/Transitorio
1183.7888198757767,148.69975021323694,191.58914567927647,196.0769157864336,65.21739130434783,73.91304347826086,171.42857142857156,11.5,328.125,0.9805254591088951,-2.9640736622468844,24,No Definido/Transitorio
1066.6666666666667,192.7333750188427,195.43595352679154,199.30060600550144,70.37037037037037,77.77777777777779,297.8571428571429,9.0,484.375,0.97771308942801,-3.0613947428876815,28,No Definido/Transitorio
1171.25,142.5296323429961,150.5231928584014,153.89010702423022,45.83333333333333,75.0,114.64285714285734,8.0,398.4375,0.9474795217508849,-2.402887544706515,25,No Definido/Transitorio
1196.6666666666667,79.76525749265136,116.5501594285553,119.11839040757022,75.0,83.33333333333334,96.78571428571422,12.0,0.0,0.996651372604985,-2.19146274126898,25,No Definido/Transitorio
1196.0119047619048,96.4424689011495,129.85726926723788,132.745015007863,66.66666666666666,79.16666666666666,130.3571428571429,8.0,15.625,0.9945353983173743,-2.0934077592704767,25,No Definido/Transitorio
1050.1020408163265,103.48641179287237,120.45517101284584,122.69499289959926,71.42857142857143,82.14285714285714,138.57142857142856,14.0,0.0,0.9933881962333762,-1.9430867085495207,29,No Definido/Transitorio
1233.7888198757762,90.30006533121833,128.5447302727364,131.5583774566837,65.21739130434783,86.95652173913044,104.28571428571422,7.666666666666667,242.1875,0.9334201687315957,-2.2457479868158168,24,No Definido/Transitorio
1206.9642857142856,101.19806937775674,133.6206605387202,136.62368793346715,58.333333333333336,87.5,175.3571428571429,12.0,78.125,0.9946385792053686,-2.2181350218690903,25,No Definido/Transitorio
1136.057142857143,106.91108264271172,135.72650320946673,138.63116628735918,68.0,84.0,162.8571428571429,12.5,46.875,0.8819228698555425,-2.8074570703531307,26,No Definido/Transitorio
818.8979591836734,97.48092786916617,55.72613534836545,55.89105048046175,40.0,74.28571428571429,110.00000000000011,11.666666666666666,125.0,0.9758072907055101,-3.9033680432356443,36,No Definido/Transitorio
892.6785714285713,156.70015143213647,149.42813967565013,151.68434764683053,62.5,75.0,251.07142857142844,10.666666666666666,78.125,0.9455718118944529,-4.455174923258499,33,No Definido/Transitorio
857.056277056277,127.848632694605,89.29107126786676,90.59944788578285,36.36363636363637,54.54545454545454,90.0,8.25,101.5625,0.8353462173288803,-3.993010430165208,34,Meditación
1174.345238095238,185.34577828307494,159.64440298277515,162.9934939917826,79.16666666666666,83.33333333333334,260.7142857142858,12.0,351.5625,0.9154833815573791,-3.703873896006779,25,Meditación
1255.2173913043478,127.12505981934783,137.48941602038042,140.30213633512383,52.17391304347826,82.6086956521739,163.57142857142844,7.666666666666667,351.5625,0.9872098224338264,-2.9144430307622318,24,Meditación
1182.3809523809523,194.69616247309796,152.9598540390537,156.27621503084586,75.0,87.5,225.71428571428555,8.0,351.5625,0.9905154837331778,-4.4502257502766716,25,Meditación
1145.7714285714287,150.56496778404173,142.58843776770266,144.8976425839383,56.00000000000001,72.0,197.1428571428571,12.5,179.6875,0.9902596188043002,-3.9200285930660934,26,Meditación
1228.8198757763973,149.67537673115376,155.7270934801802,159.38010769719585,60.86956521739131,73.91304347826086,107.85714285714266,7.666666666666667,296.875,0.9918170388376233,-3.394716589860212,24,Meditación
1152.9714285714285,149.80027519660837,145.2197490364313,147.7165242851308,68.0,84.0,272.8571428571429,12.5,148.4375,0.9967588843673705,-3.601967863167264,26,Meditación
1066.931216931217,190.69718559535173,178.56527461923557,182.09659830595322,66.66666666666666,88.88888888888889,336.42857142857133,13.5,0.0,0.9945362884406963,-3.546548442419166,28,Meditación
1087.4074074074076,201.53221440703936,144.18040983728588,146.1902697735117,40.74074074074074,77.77777777777779,271.42857142857156,6.75,406.25,0.9836279853418883,-3.920991985716457,28,Meditación
1182.6708074534163,222.56487009485298,227.3186039040591,232.6645818953154,60.86956521739131,82.6086956521739,336.42857142857144,11.5,39.0625,0.9927224737829848,-3.0831084350769116,24,Meditación
1143.8857142857141,154.73398282916676,128.8789312167223,130.84631974462567,60.0,80.0,262.8571428571429,8.333333333333334,0.0,0.9908015803948158,-3.9597449794349404,26,Meditación
1095.769230769231,199.77476328094104,191.83496308343922,194.76013504842726,53.84615384615385,80.76923076923077,353.57142857142844,13.0,62.5,0.9914787336253784,-3.9090543205990604,27,Meditación
1072.063492063492,151.62973023643843,159.55516066101896,162.68578800895358,40.74074074074074,77.77777777777779,176.42857142857156,13.5,101.5625,0.9880398226632751,-3.079787764852545,28,Meditación
1020.9693877551019,159.7584408450108,125.76417961316227,127.87645118110092,60.71428571428571,82.14285714285714,233.92857142857167,9.333333333333334,0.0,0.9915180056031737,-2.890152638224369,29,No Definido/Transitorio
1084.065934065934,206.98760381208373,185.63492809978473,189.18142679686602,53.84615384615385,84.61538461538461,346.7857142857142,13.0,0.0,0.9698592898358042,-3.649784670171968,27,No Definido/Transitorio
898.2142857142857,68.79284528837508,59.08340920193227,60.05823375473162,37.5,81.25,98.21428571428567,10.666666666666666,156.25,0.9751860384746748,-3.9376326783611626,33,No Definido/Transitorio
998.2266009852217,166.86644472447853,174.34717885733113,177.1646171990942,65.51724137931035,82.75862068965517,188.57142857142844,14.5,0.0,0.9705843829246773,-2.5573882859676353,30,No Definido/Transitorio
943.1797235023043,100.68521003969413,87.88133619660479,89.34820145089643,45.16129032258064,80.64516129032258,168.57142857142844,10.333333333333334,312.5,0.9303366228451585,-3.242516989733256,32,No Definido/Transitorio
992.8078817733988,134.42864883134507,162.93410283267653,165.88853012540585,55.172413793103445,72.41379310344827,140.0,14.5,78.125,0.9619924207901411,-2.4062406801880765,30,No Definido/Transitorio
993.6453201970444,138.28003562240715,73.6184711895836,74.95901050299393,34.48275862068966,62.06896551724138,211.42857142857133,9.666666666666666,382.8125,0.9920292044132402,-4.676822102001716,30,No Definido/Transitorio
1120.8571428571427,139.61255912942312,192.10921992697897,196.15424096020098,64.0,80.0,165.71428571428578,12.5,0.0,0.8442545918562446,-2.191521933534386,26,No Definido/Transitorio
1188.5119047619048,106.04236414375757,112.67222841455046,113.62879381094992,75.0,79.16666666666666,164.28571428571422,8.0,343.75,0.9413691540097444,-2.205536693049166,25,No Definido/Transitorio
1159.3714285714286,143.48497752555912,121.93033585913345,123.89654928438694,56.00000000000001,72.0,138.57142857142867,12.5,281.25,0.9858908920748221,-3.489537686350913,26,No Definido/Transitorio
1056.2962962962963,183.69240006842375,142.0305757870422,144.27881606837175,62.96296296296296,77.77777777777779,263.57142857142867,9.0,39.0625,0.9823674022136893,-3.3814625898377626,28,Diversión
992.5123152709358,145.12418286002227,141.0084462867323,143.5163926959746,44.827586206896555,79.3103448275862,192.85714285714278,14.5,109.375,0.9832338324159697,-3.3959212554465146,30,Diversión
877.7056277056276,128.20977876775214,113.88937973457635,115.34842172166924,48.484848484848484,75.75757575757575,104.28571428571433,11.0,31.25,0.976372042995597,-3.5844176691837517,34,Diversión
1123.1868131868132,87.88518269605876,94.9427324705772,96.89418451691144,61.53846153846154,73.07692307692307,117.5,13.0,31.25,0.9747571178378767,-3.2392952390615615,27,Diversión
1044.3386243386244,126.97017627885224,124.67603229902417,127.14110382789104,59.25925925925925,81.48148148148148,164.2857142857141,13.5,31.25,0.8774938962490687,-3.866806696919464,28,Diversión
1198.154761904762,113.09039436069621,156.45019561816417,159.65928270288057,79.16666666666666,87.5,148.21428571428578,8.0,171.875,0.9924578833161002,-2.1490511157069725,25,Diversión
1074.6560846560849,160.17827224669406,164.78948084883984,167.9357356341489,70.37037037037037,92.5925925925926,217.8571428571429,9.0,296.875,0.9963330992021535,-2.95512634868637,28,Diversión
1119.942857142857,105.88666769030849,130.9810574662076,133.72453056168345,64.0,84.0,150.0,8.333333333333334,242.1875,0.9681962678964164,-2.7025036036645287,26,Diversión
1144.8809523809523,123.35081852440959,136.70283965922653,139.48397622702984,75.0,83.33333333333334,157.14285714285734,12.0,140.625,0.9855257610923024,-2.2481949952140847,25,Diversión
1103.2967032967033,211.70706339359074,214.98400510033207,219.41685236563035,69.23076923076923,84.61538461538461,215.0,13.0,125.0,0.9876354839819906,-3.3383663124455403,27,Diversión
1158.9714285714285,68.86410753159043,83.96377174702428,85.43222656409873,36.0,76.0,74.28571428571445,8.333333333333334,171.875,0.9897713954974922,-3.161047724753746,26,Diversión
1029.5408163265306,155.67086117061442,119.56743654560043,121.57280332589998,64.28571428571429,78.57142857142857,237.857142857143,14.0,78.125,0.9934516438910511,-3.892197482299866,29,Diversión
1168.1142857142856,93.90862543969428,100.82609464094216,102.72274907037382,56.00000000000001,84.0,104.28571428571445,12.5,210.9375,0.9956517515825355,-2.558847753623851,26,Diversión
1116.8,150.91854810879045,113.38409227467659,115.5770727507726,52.0,76.0,158.57142857142867,12.5,125.0,0.9319762129377833,-4.6841497568883135,26,No Definido/Transitorio
1176.7857142857144,129.30175597948733,125.48645362892991,127.85704033635312,75.0,83.33333333333334,223.57142857142867,6.0,406.25,0.9773183014225808,-3.7505547149946623,25,No Definido/Transitorio
960.5238095238094,123.04172371710186,110.67606204941997,112.61811154050145,70.0,83.33333333333334,173.57142857142844,7.5,242.1875,0.9921368054446813,-2.768368473275849,31,No Definido/Transitorio
985.270935960591,119.65274308731954,145.9352066778437,148.59392090921398,65.51724137931035,89.65517241379311,177.1428571428571,14.5,125.0,0.9864401175574362,-2.3435079603558373,30,No Definido/Transitorio
997.8817733990147,95.20778311893432,111.25116699358436,112.96386928074203,48.275862068965516,75.86206896551724,100.0,9.666666666666666,140.625,0.948010883676407,-2.5909136956161443,30,No Definido/Transitorio
1017.8571428571429,138.81667056665378,127.85130488282815,130.07104911731057,50.0,71.42857142857143,196.07142857142867,9.333333333333334,210.9375,0.9966861496152198,-2.468063153728051,29,No Definido/Transitorio
1034.920634920635,110.34293150313434,97.68754855587864,99.60600563182818,55.55555555555556,74.07407407407408,193.57142857142867,13.5,304.6875,0.8930185127172047,-3.868647890496217,28,No Definido/Transitorio
1056.7195767195767,96.1167647551867,118.06525083058595,120.31136997675196,55.55555555555556,77.77777777777779,135.71428571428578,6.75,187.5,0.9801586595434738,-2.335220956167529,28,No Definido/Transitorio
1049.8941798941798,157.21722811847567,145.6622941074552,148.42136335076935,66.66666666666666,85.18518518518519,254.28571428571445,13.5,39.0625,0.9662053471456561,-2.7232770834808093,28,No Definido/Transitorio
1128.7912087912086,126.20986235773307,123.06029715019332,125.30094385363682,65.38461538461539,76.92307692307693,204.64285714285734,8.666666666666666,421.875,0.9493529138436915,-3.2230691504259568,27,No Definido/Transitorio
1183.8690476190477,95.05938849489493,128.45992404318906,131.20838723518509,70.83333333333334,91.66666666666666,127.5,8.0,78.125,0.9912982622344332,-2.2693696366925717,25,No Definido/Transitorio
1151.7714285714285,122.17159227571554,144.02823561045668,146.91019365081905,68.0,80.0,165.714285714286,8.333333333333334,226.5625,0.9805239076781201,-2.450527620852603,26,No Definido/Transitorio
1087.4074074074074,124.70186552269769,107.855505409301,109.69511050382253,55.55555555555556,81.48148148148148,170.71428571428578,13.5,164.0625,0.9934770470839052,-3.3824855211221245,28,Meditación
894.8214285714286,185.73121156474687,159.77065524624464,161.9110823741453,53.125,81.25,174.28571428571433,8.0,171.875,0.9593476287453603,-3.3450988580958754,33,Meditación
1272.1739130434783,138.6442903672264,170.75000984687733,172.3602414465767,47.82608695652174,73.91304347826086,53.57142857142844,5.75,546.875,0.9642698351870735,-3.021958891936509,24,Meditación
1210.1242236024843,223.86755337741724,270.01855223831507,276.3635608036685,78.26086956521739,86.95652173913044,344.2857142857141,11.5,0.0,0.9898786536389461,-2.49942462673666,24,Meditación
1194.5962732919254,180.7082317767028,186.04715423584923,190.32282013356198,39.130434782608695,65.21739130434783,218.57142857142867,11.5,140.625,0.9828084216764279,-2.825291947258741,24,Meditación
1207.7018633540372,153.10317566584794,173.41730638011182,177.48302816021356,60.86956521739131,78.26086956521739,207.85714285714266,11.5,367.1875,0.9871466338310956,-2.724811342797364,24,Meditación
1178.9142857142856,149.15936781443773,152.5413961881181,155.47900434677635,72.0,84.0,252.85714285714266,12.5,109.375,0.9893367897056913,-3.1667432015126065,26,Meditación
1162.3428571428572,170.83771190672104,154.94128798060393,158.2228556488899,56.00000000000001,80.0,168.57142857142867,8.333333333333334,375.0,0.984875600711878,-4.578721795485474,26,Meditación
1164.047619047619,179.269278238305,189.45820103096142,193.6880692289848,66.66666666666666,83.33333333333334,288.21428571428567,12.0,0.0,0.9955095784209301,-3.2822521691664917,25,Meditación
1186.0119047619046,271.6857164303535,279.7753884244588,285.62584740809183,66.66666666666666,83.33333333333334,418.57142857142844,12.0,0.0,0.9918212799960288,-3.84839729448659,25,Meditación
1086.084656084656,198.82014331196987,158.92841708845452,162.03614148083403,59.25925925925925,77.77777777777779,371.42857142857144,13.5,0.0,0.9907131104152351,-4.424762996073367,28,Meditación
1147.8285714285712,222.70794761744085,196.61376551278306,200.80711881007431,60.0,88.0,395.71428571428567,12.5,289.0625,0.9963870378315219,-4.190796702293851,26,Meditación
1160.4,176.6335420107554,192.09638312098244,196.1582744080704,60.0,88.0,248.57142857142867,12.5,101.5625,0.9827136264347436,-3.1287967675507105,26,Meditación
1174.107142857143,192.00724277414244,178.8908943607301,182.29632820914176,45.83333333333333,79.16666666666666,192.1428571428571,12.0,382.8125,0.9683658404520334,-3.2477930536616015,25,No Definido/Transitorio
1096.2087912087914,224.53505423618765,196.4017124494113,200.4359704027511,69.23076923076923,76.92307692307693,395.7142857142858,13.0,78.125,0.979124812696159,-3.935236252154049,27,No Definido/Transitorio
930.6666666666666,212.90713643514923,121.66334880870969,123.67061262996087,36.666666666666664,63.33333333333333,128.57142857142856,10.0,0.0,0.993786562120911,-4.430701111268518,31,No Definido/Transitorio
1170.914285714286,97.23199691711466,73.91275423156166,75.49060674412202,28.000000000000004,72.0,91.42857142857133,8.333333333333334,234.375,0.9911039071547189,-3.2253339313522273,26,No Definido/Transitorio
1144.5142857142857,106.13388413011283,118.69686423082668,121.00749058337188,72.0,76.0,132.8571428571429,12.5,54.6875,0.9741252830260503,-2.7591982469277334,26,No Definido/Transitorio
1185.0,161.6902732210675,174.94301265053144,178.83555847051588,70.83333333333334,91.66666666666666,138.57142857142867,12.0,328.125,0.9777466090457557,-2.7519993516168073,25,No Definido/Transitorio
1166.742857142857,158.17814808187714,178.82600900483865,182.37947931444313,72.0,76.0,145.71428571428578,8.333333333333334,414.0625,0.9968681531958536,-2.511753953910524,26,No Definido/Transitorio
1061.9576719576721,168.18690925270997,129.02088716545376,130.65732861046575,74.07407407407408,88.88888888888889,263.57142857142867,9.0,132.8125,0.9626520855171888,-4.100295687499065,28,No Definido/Transitorio
712.4285714285713,72.39579566330258,33.59110170977427,34.010770214258265,15.0,37.5,135.3571428571429,6.666666666666667,0.0,0.9009333482776025,-6.018407374894795,41,No Definido/Transitorio
830.8979591836735,39.61562879637606,28.520963836295245,28.716590750060334,11.428571428571429,37.142857142857146,50.000000000000114,3.888888888888889,23.4375,0.8406572449946862,-4.261590214829073,36,No Definido/Transitorio
831.142857142857,68.93182602147908,41.19391672941773,41.79754990077103,20.0,57.14285714285714,63.571428571428555,11.666666666666666,140.625,0.8298149524591725,-4.331172080408314,36,No Definido/Transitorio
839.8367346938776,129.27527764577698,172.77691033323208,175.3600828161195,45.714285714285715,68.57142857142857,77.85714285714278,11.666666666666666,500.0,0.7687717951497244,-1.6871239219116425,36,No Definido/Transitorio
814.1224489795917,75.12516281156105,44.693164931526596,45.329902954439746,17.142857142857142,54.285714285714285,133.57142857142856,11.666666666666666,0.0,0.9128614862468444,-5.1186666777335255,36,No Definido/Transitorio
901.25,56.876973592854704,54.975007787517946,55.80822361560395,43.75,78.125,72.5,8.0,140.625,0.9563845458460776,-2.488932132230948,33,No Definido/Transitorio
955.6190476190477,80.0307236335572,72.49790698039256,73.13063568946073,36.666666666666664,76.66666666666667,117.85714285714289,10.0,78.125,0.9600993447571897,-2.1928895229015306,31,No Definido/Transitorio
912.2580645161291,80.70840618581315,90.0502505218482,91.58864527713915,48.38709677419355,70.96774193548387,79.28571428571422,10.333333333333334,31.25,0.8118582172042755,-3.0501116546216416,32,No Definido/Transitorio
924.0552995391705,35.42760516000585,50.79102175735851,51.65603774047855,38.70967741935484,80.64516129032258,47.14285714285734,10.333333333333334,132.8125,0.717785723020292,-2.741847587792678,32,No Definido/Transitorio
897.8125,66.18045867625185,54.09194133308914,54.748492313278675,34.375,65.625,98.92857142857144,10.666666666666666,23.4375,0.9373220733967593,-3.8045225634726996,33,No Definido/Transitorio
883.160173160173,50.681273933476646,48.99500182755006,49.65309213856015,36.36363636363637,72.72727272727273,49.999999999999886,5.5,132.8125,0.9399037779717575,-2.7151441685099003,34,No Definido/Transitorio
863.0252100840336,67.75466374798137,51.69423925636561,52.30764005774525,35.294117647058826,73.52941176470588,77.49999999999989,11.333333333333334,156.25,0.8990936343300946,-4.099492141269168,35,Baseline
914.4239631336405,75.98814339908175,72.85107351003572,74.08126786294923,45.16129032258064,70.96774193548387,111.42857142857133,10.333333333333334,62.5,0.8531675620988021,-3.363729207454971,32,Baseline
845.0420168067227,77.05320692132524,58.366233323142225,59.20227007213909,29.411764705882355,52.94117647058824,114.28571428571433,8.5,70.3125,0.9365307481517217,-3.707009902880724,35,Baseline
863.5714285714286,80.37577946465987,71.561780549216,72.65005370287281,41.17647058823529,64.70588235294117,107.50000000000011,11.333333333333334,0.0,0.9576755102209673,-2.9344608281984135,35,Baseline
950.6190476190476,122.86211659844717,139.3775748618989,141.65823447151243,50.0,80.0,157.5,10.0,31.25,0.9908842466636578,-2.424522483538608,31,Baseline
961.7619047619048,56.66758426766,70.01357061579544,71.18501756441395,50.0,66.66666666666666,76.07142857142867,7.5,125.0,0.9737826890511789,-2.0243721883937984,31,Baseline
971.5270935960592,52.36384682207977,58.764614211121355,59.80502730905832,44.827586206896555,68.96551724137932,78.57142857142856,9.666666666666666,70.3125,0.8722842639396057,-3.2782066411837567,30,Baseline
1010.5418719211822,55.585164076999625,75.7340174519806,77.11098905038837,62.06896551724138,86.20689655172413,77.14285714285722,9.666666666666666,39.0625,0.9507604138652819,-1.9398323455392112,30,Baseline
1023.0612244897958,71.58471218248047,81.82720580575459,83.33127504871295,64.28571428571429,89.28571428571429,87.85714285714266,7.0,117.1875,0.9749532273172193,-2.2142631597878863,29,Baseline
1020.6632653061223,55.97413578136977,78.12571995133116,79.60430368652554,50.0,89.28571428571429,69.64285714285711,7.0,117.1875,0.9904176408891808,-1.9595800953732956,29,Baseline
994.4334975369457,90.16533633132762,94.57554402538109,96.31100584953221,58.620689655172406,75.86206896551724,114.28571428571433,9.666666666666666,164.0625,0.9821048744133252,-3.043280352580297,30,Baseline
1008.3673469387755,75.54459799732952,89.76327311491232,91.47294914040587,57.14285714285714,71.42857142857143,99.64285714285711,9.333333333333334,101.5625,0.9656677500605446,-2.4245979616421462,29,Baseline
1037.4074074074074,66.2283251911116,76.53556237261411,77.67284366908468,62.96296296296296,85.18518518518519,117.14285714285711,6.75,0.0,0.9207545356597487,-2.694979668184388,28,Baseline
1034.4973544973545,52.350862708527686,72.69805946030172,74.13012022973338,44.44444444444444,81.48148148148148,42.14285714285734,6.75,109.375,0.954923826751808,-2.0115937600461193,28,Baseline
945.4285714285711,61.69024344678478,55.114875873720806,55.5066594472036,40.0,76.66666666666667,89.64285714285711,10.0,0.0,0.9074213186114888,-2.2534984935343414,31,Baseline
898.4821428571428,79.76672498446042,71.24954523260155,72.15477232747077,50.0,81.25,83.92857142857144,10.666666666666666,179.6875,0.9804579382971139,-1.9634479863421113,33,Baseline
986.5517241379309,86.11260954161682,80.18109968287843,81.65217075819828,48.275862068965516,68.96551724137932,111.42857142857156,9.666666666666666,125.0,0.9905185896754669,-2.6282901529879563,30,Baseline
1053.1216931216932,85.94203902484719,87.18113012888425,88.70526931229993,62.96296296296296,66.66666666666666,118.57142857142856,6.75,23.4375,0.9947275328833585,-2.3508487428405163,28,Baseline
1074.3915343915344,82.21895751128622,100.88890637018238,102.61664496647619,66.66666666666666,81.48148148148148,135.71428571428578,5.4,39.0625,0.9874889783156967,-1.9856072532879687,28,Baseline
985.5172413793101,62.23570841591473,66.65366734293309,67.85378119532443,48.275862068965516,82.75862068965517,75.71428571428555,9.666666666666666,117.1875,0.9822903383382521,-2.2515210794184766,30,Baseline
1057.037037037037,78.14160748536298,93.06907345236121,94.7466588136908,59.25925925925925,74.07407407407408,75.0,9.0,70.3125,0.9710540047590758,-2.391710412359606,28,Baseline
849.3697478991597,92.10866587788931,56.29017496113531,56.76062638381462,32.35294117647059,64.70588235294117,107.85714285714289,11.333333333333334,70.3125,0.9677282552151905,-4.687983833992718,35,Baseline
953.6666666666664,124.03870098959254,125.38020993894919,127.3951193614446,70.0,83.33333333333334,183.57142857142856,10.0,0.0,0.9898442994794217,-2.6320606724354443,31,Baseline
1103.1868131868132,87.33169954651571,122.39381070119187,124.89587499928386,65.38461538461539,76.92307692307693,139.28571428571422,8.666666666666666,148.4375,0.9947649931188638,-2.1109552862035,27,Baseline
1035.6613756613756,92.46025195593687,127.1042662757411,129.5946706077125,62.96296296296296,88.88888888888889,104.28571428571422,13.5,46.875,0.9837705623601601,-2.0804997023564593,28,Baseline
1030.7142857142858,92.9254937694186,90.57972355318844,92.30514367472155,42.857142857142854,85.71428571428571,134.28571428571433,9.333333333333334,234.375,0.9612533335165515,-3.6278455865864463,29,Baseline
1045.079365079365,89.8160804632748,110.87492776789225,112.81359571583538,66.66666666666666,85.18518518518519,118.57142857142844,9.0,85.9375,0.9748977002504063,-2.099710084925998,28,Baseline
1010.6896551724137,93.79791929043544,105.86930167853602,107.70134112057617,55.172413793103445,86.20689655172413,88.57142857142856,9.666666666666666,140.625,0.9921951810109201,-2.408427636888834,30,Baseline
1048.0102040816325,101.11871538451724,102.60735395385628,103.31166813724757,71.42857142857143,89.28571428571429,113.57142857142844,14.0,23.4375,0.9870773520026798,-2.2320693244907677,29,Baseline
1039.9470899470898,88.3233689406009,96.62028155054912,98.38679953830646,55.55555555555556,77.77777777777779,117.14285714285711,9.0,203.125,0.9802399867887615,-2.217287649456039,28,Baseline
1106.4285714285713,80.67799436965575,104.89333746667593,107.0226945225037,57.692307692307686,73.07692307692307,98.21428571428555,6.5,125.0,0.9964303368405879,-2.062631007024182,27,Baseline
1048.469387755102,71.27595184123155,91.71993916874712,93.22771303169871,57.14285714285714,82.14285714285714,108.57142857142844,9.333333333333334,70.3125,0.9770241039761023,-1.9466986171288074,29,Baseline
859.7899159663865,55.11570149028097,46.342410895626124,47.045969900290046,17.647058823529413,50.0,60.71428571428555,8.5,15.625,0.9119439072389176,-3.5083413694534813,35,Baseline
859.5238095238096,96.51164851622693,62.10333307956858,63.04406055631704,27.27272727272727,69.6969696969697,124.28571428571433,11.0,195.3125,0.9745056724088788,-3.1203798128570135,34,Baseline
959.0,145.28147350810715,103.27296898244465,104.8387244205694,50.0,73.33333333333333,208.21428571428567,10.0,265.625,0.9782062125477048,-4.2476149310172255,31,Baseline
1011.6836734693877,77.6507419675248,103.06599900632399,105.0160365295126,64.28571428571429,85.71428571428571,89.64285714285722,7.0,156.25,0.9433547281344563,-1.9915852386589727,29,Baseline
1008.9655172413792,88.29771445401263,85.46008223712798,86.98135971399685,58.620689655172406,75.86206896551724,132.85714285714278,7.25,93.75,0.9773759176788898,-3.376537453077005,30,Baseline
1081.2698412698412,87.49373902994476,111.86726828829651,114.07915399053513,70.37037037037037,88.88888888888889,92.14285714285711,5.4,93.75,0.9938589580650105,-2.4472546254394283,28,Baseline
1026.8367346938776,67.87717013604478,86.697622240705,88.23573919484073,64.28571428571429,89.28571428571429,93.57142857142867,9.333333333333334,85.9375,0.9945067847399517,-2.1913820519984406,29,No Definido/Transitorio
871.6883116883117,225.29840035434415,140.65784763759476,142.6401505804158,54.54545454545454,66.66666666666666,424.2857142857141,11.0,0.0,0.9322935705875643,-4.563146063111683,34,No Definido/Transitorio
907.5576036866361,98.77976158657343,86.40987597877144,87.55328795249504,41.935483870967744,80.64516129032258,150.0,10.333333333333334,109.375,0.9856912360942054,-2.699191310022603,32,No Definido/Transitorio
938.1904761904764,90.33827532005478,83.3428096887314,84.70580196360444,33.33333333333333,70.0,107.50000000000011,10.0,156.25,0.9712598674458047,-2.5645030099625075,31,No Definido/Transitorio
890.1339285714286,77.88291492022728,72.6041509739205,73.66138446373895,31.25,68.75,125.35714285714289,10.666666666666666,164.0625,0.9815808697455027,-3.409212578267524,33,No Definido/Transitorio
918.6607142857142,104.32322884365702,112.75092709258311,114.5091134532872,53.125,65.625,109.64285714285711,10.666666666666666,54.6875,0.9532593495902817,-2.0372256607071115,33,No Definido/Transitorio
1091.7032967032967,81.98060420762978,109.52364389221438,111.77333721225578,57.692307692307686,65.38461538461539,122.85714285714312,13.0,0.0,0.9866136566826031,-2.1501409959692603,27,No Definido/Transitorio
1018.7244897959183,90.60753981574031,110.49329369525145,112.57746007323873,67.85714285714286,82.14285714285714,104.2857142857141,7.0,156.25,0.98237565246364,-2.1550551249296954,29,No Definido/Transitorio
1008.7755102040817,72.24267732557875,70.49227615655795,71.56230866289897,53.57142857142857,85.71428571428571,125.71428571428555,7.0,179.6875,0.964587331573868,-3.1091292809193614,29,No Definido/Transitorio
974.3349753694581,61.06976696465049,59.949565780894396,61.012473035349196,51.724137931034484,62.06896551724138,74.28571428571422,9.666666666666666,109.375,0.8946155369898248,-3.1229694411070277,30,No Definido/Transitorio
955.7619047619048,75.02332110636502,60.30651241641402,61.34439349648252,36.666666666666664,70.0,134.28571428571422,10.0,0.0,0.983578719309539,-3.6548865799848613,31,No Definido/Transitorio
993.399014778325,105.33329982238665,72.53178653741426,73.67611013204758,48.275862068965516,72.41379310344827,122.85714285714278,9.666666666666666,257.8125,0.9748219416780362,-4.201627506830403,30,Diversión
811.4285714285714,68.92426231640101,55.34624645885705,56.13660849427565,25.0,66.66666666666666,86.07142857142867,12.0,101.5625,0.9474264431563821,-3.384510188440501,37,Diversión
967.0476190476189,90.76416016440365,95.86195505235767,97.51978555887973,60.0,93.33333333333333,98.57142857142856,10.0,117.1875,0.9372471146881017,-2.833815609524014,31,Diversión
1013.3673469387757,84.59964341096793,87.7685921885178,89.43465802305566,67.85714285714286,82.14285714285714,103.92857142857156,7.0,265.625,0.8397590167953258,-3.3809384847201955,29,Diversión
1026.6836734693877,108.64314922364791,105.75932116653098,107.7254004622954,60.71428571428571,75.0,129.642857142857,9.333333333333334,242.1875,0.937104810048693,-2.6140552556608236,29,Diversión
923.9170506912444,136.5004636018817,134.91796449271365,136.8956790019044,45.16129032258064,80.64516129032258,162.14285714285722,10.333333333333334,70.3125,0.9687321531669109,-3.5165772379787925,32,Diversión
891.5625,98.55864431556434,67.86453998003506,68.73738238794544,50.0,78.125,161.78571428571422,16.0,15.625,0.9928451795123392,-3.7996733667566165,33,Diversión
1001.1330049261084,70.04411282922196,70.89700162665659,72.08414200624567,51.724137931034484,86.20689655172413,89.99999999999977,9.666666666666666,70.3125,0.9898984810338021,-2.2445436417901723,30,Diversión
951.1904761904764,60.01299804474489,55.2468709409725,56.207241939506005,36.666666666666664,63.33333333333333,91.07142857142856,10.0,85.9375,0.963176611609699,-2.637600399972136,31,Diversión
982.3645320197044,90.12485335755851,85.39566631318529,86.94871997319953,48.275862068965516,68.96551724137932,74.28571428571445,9.666666666666666,109.375,0.9710115485715632,-3.0841728458167585,30,Diversión
993.3004926108376,49.23037924161713,56.5066625757697,57.542724135732534,27.586206896551722,75.86206896551724,49.999999999999886,7.25,156.25,0.9491199829991563,-2.658013651474823,30,Diversión
992.8078817733989,52.15261686495772,57.479873521592815,58.50474606902613,44.827586206896555,68.96551724137932,78.57142857142856,7.25,70.3125,0.9758921710232108,-2.973718622834474,30,Diversión
934.809523809524,46.33124825493511,45.752754749918516,46.562169071250146,23.333333333333332,63.33333333333333,67.14285714285711,10.0,70.3125,0.9596209129760733,-3.1511175604275032,31,Diversión
996.1224489795919,54.82723107407262,54.97130427116372,55.97898985401465,35.714285714285715,67.85714285714286,84.2857142857141,9.333333333333334,171.875,0.9205175674187629,-3.0158177554435572,29,No Definido/Transitorio
926.1751152073734,88.46413401126942,90.7223468484313,92.27264570138733,35.483870967741936,74.19354838709677,76.42857142857156,10.333333333333334,218.75,0.9504208758582108,-3.866470146144607,32,No Definido/Transitorio
1031.3775510204082,115.18133335295282,89.57656331535202,91.05716049339979,60.71428571428571,78.57142857142857,155.35714285714266,14.0,250.0,0.9944742134208149,-3.523537438821399,29,No Definido/Transitorio
799.0476190476189,121.59436460779413,49.594860074130615,50.284391011727884,22.22222222222222,47.22222222222222,182.1428571428571,12.0,15.625,0.9633506805242454,-5.951787681275551,37,No Definido/Transitorio
927.6958525345622,75.76070223165378,76.0155730553863,77.23639649153685,45.16129032258064,80.64516129032258,77.14285714285722,6.2,132.8125,0.9814653010459923,-2.673528510592825,32,No Definido/Transitorio
939.5852534562214,53.5834190370391,54.823154153081326,55.75624709252619,35.483870967741936,77.41935483870968,53.57142857142867,7.75,93.75,0.9176677736821888,-2.8267629895319515,32,No Definido/Transitorio
912.1198156682029,131.37880577877107,141.18160254777953,143.41124068552404,58.06451612903226,67.74193548387096,102.85714285714289,10.333333333333334,523.4375,0.9029536251682654,-1.8225848122947348,32,No Definido/Transitorio
899.4196428571429,93.47216346234038,79.176555403787,80.2788370812935,50.0,75.0,116.78571428571433,10.666666666666666,187.5,0.9529159438819934,-3.625243085921175,33,No Definido/Transitorio
774.6992481203007,129.22694664456566,61.97921470709974,62.5328987385771,21.052631578947366,50.0,237.5,9.5,62.5,0.9411794099860767,-4.690181211463137,39,No Definido/Transitorio
894.7767857142858,67.06938756630153,73.99046252791949,75.2117630717889,56.25,84.375,104.64285714285722,6.4,70.3125,0.8908308597322094,-2.821729021044032,33,No Definido/Transitorio
940.184331797235,88.91465137601077,90.40611321211885,91.90415358366616,48.38709677419355,74.19354838709677,112.14285714285711,7.75,148.4375,0.9712756367105868,-2.8891902394278652,32,No Definido/Transitorio
902.9017857142858,128.44668007177722,84.05145920566585,85.43076509264239,46.875,65.625,211.78571428571433,10.666666666666666,265.625,0.9699843340656598,-3.9765220860664363,33,No Definido/Transitorio
996.7487684729062,81.3263738843225,94.70300360668756,96.42463808780352,68.96551724137932,86.20689655172413,108.57142857142856,7.25,132.8125,0.9894089437511138,-2.265775806001731,30,No Definido/Transitorio
997.7339901477833,76.04712866786436,78.15147510587683,79.25721127669453,58.620689655172406,79.3103448275862,115.71428571428555,9.666666666666666,195.3125,0.9647946214381441,-2.906210547997396,30,No Definido/Transitorio
903.2589285714286,113.55250653894502,79.92508012620146,81.20080252902892,40.625,65.625,175.3571428571429,10.666666666666666,0.0,0.9894730321586283,-3.910857912101199,33,Meditación
944.331797235023,87.24387889252343,76.10054215974283,76.63740020086315,51.61290322580645,74.19354838709677,92.85714285714289,10.333333333333334,171.875,0.9650553176432249,-1.974655450465028,32,Meditación
912.8110599078341,109.1036353553387,75.63787698880866,75.45156886813808,48.38709677419355,64.51612903225806,154.28571428571422,10.333333333333334,289.0625,0.995796374167902,-3.710472376923179,32,Meditación
1068.6772486772486,82.32104507638829,106.30330410988263,108.39078378450432,66.66666666666666,77.77777777777779,134.28571428571445,9.0,156.25,0.9946569884712448,-2.0948236095903106,28,Meditación
992.7093596059115,105.77793507726844,138.76590603020915,141.31193798120026,72.41379310344827,79.3103448275862,134.28571428571433,14.5,0.0,0.99407651960926,-2.3873218883996237,30,Meditación
947.2811059907833,73.89121884874885,78.08681719988441,79.33638671269817,48.38709677419355,83.87096774193549,77.14285714285711,10.333333333333334,125.0,0.9898994715846119,-2.3492708574221064,32,Meditación
956.0476190476189,71.77422115513008,71.01803202444371,72.09038929296038,50.0,73.33333333333333,87.857142857143,10.0,179.6875,0.9890181530489941,-2.0744555317265956,31,Meditación
930.6451612903224,71.83204021407614,59.53790309342362,60.45522825616136,41.935483870967744,67.74193548387096,117.14285714285711,10.333333333333334,62.5,0.9954622416423871,-2.7704290763364314,32,Meditación
996.1083743842366,75.02176219910008,62.41495671838147,63.557222800660604,41.37931034482759,68.96551724137932,104.28571428571422,9.666666666666666,156.25,0.9930787716866663,-3.3644375744575243,30,Meditación
917.7880184331798,97.57804391551346,86.23571556759866,87.69624285580936,45.16129032258064,74.19354838709677,123.57142857142856,10.333333333333334,39.0625,0.9949146088833418,-3.3503069734501554,32,Meditación
801.3492063492063,138.3905591938543,31.618166531449855,31.37925848622396,13.88888888888889,55.55555555555556,280.0,12.0,0.0,0.9843170033443898,-6.248503166333439,37,Meditación
968.6206896551724,163.92706315549106,146.30731664476008,148.0261740076397,68.96551724137932,79.3103448275862,272.8571428571428,9.666666666666666,132.8125,0.9410385331993767,-2.856362818623456,30,Meditación
1028.9285714285716,142.13182270855117,158.39162311694565,161.3731306139421,53.57142857142857,71.42857142857143,161.07142857142844,9.333333333333334,210.9375,0.9851663944327893,-2.937988303091433,29,Meditación
969.0,114.78962184624137,88.12895995065706,89.65523814676929,60.0,76.66666666666667,168.57142857142844,10.0,140.625,0.9839985039778044,-3.912561930936644,31,Meditación
1020.3571428571429,95.42491597092157,112.00805769524854,113.80288218649443,42.857142857142854,82.14285714285714,78.92857142857133,7.0,210.9375,0.9630997631859228,-2.924400514678432,29,No Definido/Transitorio
985.2709359605914,122.53226114625714,92.89324259035442,94.49226099512626,55.172413793103445,65.51724137931035,162.85714285714278,9.666666666666666,109.375,0.9976611116365874,-3.9699694831463663,30,No Definido/Transitorio
898.9285714285713,233.8644070724014,103.17570994719304,104.77443717805227,34.375,56.25,393.92857142857133,10.666666666666666,93.75,0.9805952653584166,-6.057434450486687,33,No Definido/Transitorio
1073.227513227513,115.1918695569438,117.52851285700807,119.2934853032335,81.48148148148148,92.5925925925926,150.0000000000001,13.5,171.875,0.9887104993523785,-2.154060511794367,28,No Definido/Transitorio
1070.846560846561,97.84993096009167,96.22465210885095,98.04263321528295,55.55555555555556,88.88888888888889,107.14285714285734,9.0,179.6875,0.9919356937255333,-1.980490560263164,28,No Definido/Transitorio
1037.295918367347,110.89230561473788,111.80137067702154,113.88965254388671,60.71428571428571,67.85714285714286,170.35714285714266,14.0,39.0625,0.9871933142789402,-3.2561963526788684,29,No Definido/Transitorio
754.7985347985349,133.3495955270484,82.61957126079062,82.98625625560071,33.33333333333333,48.717948717948715,135.71428571428567,9.75,210.9375,0.9812363320480344,-4.32596064138619,40,No Definido/Transitorio
834.6638655462184,122.02492158219283,61.41346839403819,62.21362965046898,38.23529411764706,61.76470588235294,201.07142857142856,17.0,0.0,0.9742649066984342,-4.948688301523473,35,No Definido/Transitorio
928.4331797235023,107.10180473127049,102.23588836973194,103.97658707209142,67.74193548387096,83.87096774193549,165.71428571428567,15.5,101.5625,0.9342374015465891,-3.1099390670749236,32,No Definido/Transitorio
878.3982683982683,71.60225096913246,49.40849096655187,50.00987394276156,33.33333333333333,75.75757575757575,98.57142857142856,11.0,164.0625,0.8972607669603759,-4.1004952134778,34,No Definido/Transitorio
828.6974789915967,63.81246453816051,51.36118721619729,52.15390086452325,20.588235294117645,55.88235294117647,91.42857142857144,6.8,101.5625,0.950562872537415,-3.143309492901126,35,No Definido/Transitorio
798.3730158730158,54.49171737718136,35.719183337655394,36.114349917125004,11.11111111111111,52.77777777777778,65.357142857143,7.2,78.125,0.9849541599997471,-3.3292921457507068,37,No Definido/Transitorio
922.6267281105988,100.61450428581058,89.1982428672911,90.407942455922,54.83870967741935,70.96774193548387,150.71428571428578,15.5,62.5,0.996980244574046,-2.3305915505893187,32,No Definido/Transitorio
889.7767857142858,97.82500355199244,65.5532991011244,66.21932423988424,50.0,65.625,91.07142857142856,10.666666666666666,226.5625,0.9815204415093749,-3.254359246853385,33,No Definido/Transitorio
887.5446428571428,80.53821125825549,61.61957231190883,62.63471327817426,25.0,75.0,74.642857142857,6.4,140.625,0.9883727417974306,-3.670564892706396,33,No Definido/Transitorio
897.4553571428571,72.79769362308139,62.40410681781103,63.43004523550342,43.75,62.5,122.14285714285711,10.666666666666666,85.9375,0.9908058803020715,-2.7261838158829423,33,No Definido/Transitorio
880.9375,90.75254781088636,52.59994718355681,53.4659586448808,21.875,56.25,137.14285714285722,10.666666666666666,0.0,0.9818503965954334,-4.644728531483438,33,No Definido/Transitorio
900.2678571428571,81.6932697508225,61.60995619035521,62.60566227482842,25.0,78.125,96.07142857142867,10.666666666666666,109.375,0.9693897437285025,-3.7371213581597966,33,Estrés
734.5357142857143,85.9945889892293,45.12671849508901,45.62014356885139,22.5,57.49999999999999,102.5,10.0,0.0,0.9113681891522825,-5.062325935431233,41,Estrés
762.8571428571429,60.544504834353596,37.304371136661985,37.647098676161086,18.421052631578945,68.42105263157895,94.28571428571422,9.5,117.1875,0.9658536491162139,-4.127800240782329,39,Estrés
768.8345864661654,67.59835249574331,43.89163308703476,44.496633114447974,18.421052631578945,60.526315789473685,95.35714285714278,9.5,179.6875,0.9909799670560077,-3.306871041280939,39,Estrés
760.3007518796993,56.25679626257952,37.92901315101723,38.32447918080544,21.052631578947366,60.526315789473685,67.142857142857,5.428571428571429,117.1875,0.9649172998672605,-3.1849681182330336,39,Estrés
847.1008403361344,64.13930928021779,46.15922538146566,46.72573896161478,32.35294117647059,64.70588235294117,102.14285714285722,6.8,132.8125,0.936161275600372,-3.8001803559024387,35,Estrés
838.2448979591837,49.181885169702724,39.65411680509146,40.22276450814275,22.857142857142858,57.14285714285714,58.57142857142867,7.0,125.0,0.9601426081343801,-3.128341514012047,36,Estrés
773.011583011583,59.02052352959868,36.72459863803439,37.242909896308355,16.216216216216218,56.75675675675676,75.71428571428567,9.25,54.6875,0.9899354962341064,-4.047595943072281,38,Estrés
749.0842490842491,59.16124008693325,34.924346654717276,35.38574756483972,10.256410256410255,61.53846153846154,100.71428571428567,13.0,31.25,0.9858666190623845,-4.098482504885338,40,Estrés
801.7857142857142,42.98399593692448,38.47758803954724,38.92210867419738,19.444444444444446,63.888888888888886,60.000000000000114,9.0,70.3125,0.9427417080995983,-2.96884479986193,37,Estrés
783.8223938223939,56.12491539929087,40.68433874970973,41.25760327881731,18.91891891891892,59.45945945945946,64.28571428571422,6.166666666666667,46.875,0.9876239340383491,-3.4554908329795677,38,Estrés
850.3361344537816,61.56891129287298,44.31223894949768,44.77970367780322,20.588235294117645,55.88235294117647,106.07142857142856,11.333333333333334,46.875,0.9727806745385091,-2.950538936538658,35,Estrés
860.4329004329004,64.99655097647377,43.419671315463184,44.11160866587736,18.181818181818183,72.72727272727273,101.42857142857144,11.0,78.125,0.9057616279229097,-4.742620848313607,34,Estrés
699.8606271777003,60.479212888707735,25.492095613650722,25.681475812253137,4.878048780487805,39.02439024390244,105.71428571428567,6.833333333333333,148.4375,0.9823348592869976,-4.586258052955821,42,Estrés
708.5,69.69166599949705,41.4165701955251,41.926204269205506,17.5,55.00000000000001,88.92857142857133,10.0,164.0625,0.9879258269887063,-3.28005127402692,41,Estrés
724.0714285714286,50.08893190018229,35.78820189784769,36.162866295833666,17.5,60.0,72.85714285714289,8.0,85.9375,0.988694262645506,-2.986747256944261,41,Estrés
702.0748299319728,105.7416869944738,49.19865562473465,49.80804367303131,23.809523809523807,64.28571428571429,138.21428571428567,8.4,187.5,0.927044091243592,-5.1444802925683675,43,Estrés
714.7386759581882,62.53606226907362,50.37005913380346,50.893430688883065,26.82926829268293,75.60975609756098,85.71428571428578,13.666666666666666,70.3125,0.9919934367298813,-2.629480881717495,42,Estrés
683.2225913621263,82.94453110576536,50.99829452740157,51.31803516665967,20.930232558139537,62.7906976744186,147.85714285714278,14.333333333333334,93.75,0.9845014387734963,-4.096646101681572,44,Estrés
730.8058608058608,65.25155394587748,51.56310723692823,52.183212261077166,30.76923076923077,71.7948717948718,87.85714285714289,7.8,148.4375,0.9963885166787038,-2.719444999072166,40,Estrés
742.3443223443222,68.07265908637565,41.441532844096315,41.88146316766494,25.64102564102564,66.66666666666666,102.14285714285711,6.5,101.5625,0.9871654908374156,-3.262501065319258,40,Estrés
724.0714285714287,77.3782529819386,48.39874496169383,49.029412954984494,40.0,72.5,113.21428571428578,13.333333333333334,54.6875,0.9931353205006916,-3.2731650553741503,41,No Definido/Transitorio
694.4947735191638,69.7865265164092,49.63077962025467,50.201047916661324,12.195121951219512,63.41463414634146,91.42857142857144,10.25,31.25,0.9765250852933752,-3.2135277693577593,42,No Definido/Transitorio
745.9340659340661,61.19955426002743,44.75617197865115,45.346134940216395,25.64102564102564,58.97435897435898,96.42857142857133,7.8,78.125,0.9892771999538801,-2.6200662802244947,40,No Definido/Transitorio
807.5396825396825,100.67736252460588,53.7763427887373,54.52213633979053,33.33333333333333,63.888888888888886,128.57142857142867,6.0,125.0,0.9718331114979386,-4.7902192779793396,37,No Definido/Transitorio
713.9024390243903,112.61593771565332,69.49453069068362,70.32034049837523,26.82926829268293,43.90243902439025,195.71428571428567,6.833333333333333,15.625,0.9291298889842334,-3.57846557198321,42,No Definido/Transitorio
1006.7857142857143,96.57523629824563,110.90502429651295,112.89909731604415,60.71428571428571,92.85714285714286,173.57142857142867,9.333333333333334,70.3125,0.9581667483836318,-2.4943672560990353,29,No Definido/Transitorio
980.344827586207,120.06112095786041,116.44328190528913,118.02783168819984,51.724137931034484,75.86206896551724,162.8571428571429,9.666666666666666,148.4375,0.9400055574516861,-2.7062466251373376,30,No Definido/Transitorio
1055.7142857142858,107.75721300439288,118.87027083036422,121.09479660382269,62.96296296296296,92.5925925925926,135.71428571428578,9.0,312.5,0.9975950468431862,-2.418833698019076,28,No Definido/Transitorio
855.5844155844155,94.99353068491116,94.26947912170488,95.06031313666368,42.42424242424242,66.66666666666666,120.0,11.0,0.0,0.6348337851446227,-3.659409396386385,34,No Definido/Transitorio
883.7229437229438,131.89790974903937,98.19382903840999,99.45596540831293,45.45454545454545,75.75757575757575,198.57142857142856,11.0,304.6875,0.9426491636879869,-3.0866078767954086,34,No Definido/Transitorio
957.7142857142859,95.04885961591388,106.99102542486328,108.88222211615923,50.0,76.66666666666667,164.9999999999999,10.0,218.75,0.986151203722266,-2.2443766732215127,31,No Definido/Transitorio
897.8354978354978,111.79947497008602,80.49076192397511,81.70408509613003,42.42424242424242,72.72727272727273,165.71428571428567,11.0,148.4375,0.9350189614603563,-3.900071637064064,34,No Definido/Transitorio
1022.2448979591836,98.05240902861965,122.62405599264639,124.83649402836134,64.28571428571429,75.0,161.07142857142856,9.333333333333334,296.875,0.9909847658369605,-2.012127162871433,29,No Definido/Transitorio
944.6543778801844,147.61089120720197,143.89433008736836,146.31496654365344,61.29032258064516,87.09677419354838,132.1428571428571,10.333333333333334,382.8125,0.9223710045139576,-3.510862920699123,32,No Definido/Transitorio
1056.5608465608466,87.39313659135144,103.87885408749281,105.93177805198918,62.96296296296296,70.37037037037037,112.14285714285722,9.0,164.0625,0.953480606158926,-2.3882862519328407,28,No Definido/Transitorio
1069.945054945055,79.84217162932543,75.74608496651894,77.29737611162167,46.15384615384615,80.76923076923077,81.42857142857156,8.666666666666666,273.4375,0.9058063124115797,-3.140743242274952,27,No Definido/Transitorio
1018.469387755102,95.96935811952063,89.86131920544236,91.44729788889182,64.28571428571429,71.42857142857143,155.71428571428532,14.0,39.0625,0.9150206403103869,-3.3985640229449223,29,No Definido/Transitorio
950.1428571428571,102.92372639636187,69.98240454437676,70.21456008245107,46.666666666666664,70.0,138.21428571428567,15.0,0.0,0.9031867910400216,-2.9013317323821397,31,No Definido/Transitorio
762.7413127413126,74.5396897566826,44.80937199508719,45.42316244414243,16.216216216216218,43.24324324324324,108.57142857142844,6.166666666666667,23.4375,0.9252898825958487,-4.832406677560703,38,No Definido/Transitorio
795.1190476190476,97.56832098317169,95.75113515453447,97.08065941886599,19.444444444444446,58.333333333333336,116.07142857142856,7.2,117.1875,0.948506237663737,-3.3403621682350573,37,No Definido/Transitorio
939.1244239631337,73.06010704022098,70.39248568431383,71.3353085724057,61.29032258064516,87.09677419354838,104.28571428571433,10.333333333333334,46.875,0.8953316940337689,-2.620360874405692,32,No Definido/Transitorio
1055.5555555555557,59.61984926142464,90.11983997599997,91.90167771780305,55.55555555555556,85.18518518518519,90.71428571428567,9.0,117.1875,0.9242725476004752,-2.2845835746161853,28,No Definido/Transitorio
1061.111111111111,92.41002525800002,106.35645465795548,107.89955501179116,70.37037037037037,85.18518518518519,128.57142857142867,9.0,0.0,0.8139713044367772,-3.2458424815699316,28,No Definido/Transitorio
1044.6560846560847,83.03844562927652,97.87178040841998,99.79490742458104,70.37037037037037,88.88888888888889,127.142857142857,6.75,171.875,0.9772216950438917,-2.05690079445339,28,No Definido/Transitorio
1049.4708994708994,68.56930874487581,85.35593589656577,86.79055067245658,62.96296296296296,92.5925925925926,81.42857142857144,9.0,85.9375,0.9462590091620323,-2.5523325672660095,28,No Definido/Transitorio
1051.798941798942,58.856972944106325,77.96821394764179,79.39514277975239,55.55555555555556,77.77777777777779,67.85714285714289,9.0,109.375,0.8641980843455881,-1.9324630589695262,28,No Definido/Transitorio
1125.0285714285712,78.32441691908272,101.6120071645079,103.78720294914544,72.0,92.0,87.14285714285734,6.25,117.1875,0.8258773963864069,-3.380481513213071,26,No Definido/Transitorio
1007.5369458128079,46.71247040054598,59.19220557781386,60.277831892003945,55.172413793103445,82.75862068965517,68.57142857142867,9.666666666666666,101.5625,0.9410891435482868,-2.238176903954046,30,No Definido/Transitorio
1084.5502645502645,68.76008507395748,90.56641924650349,92.3599708056545,62.96296296296296,74.07407407407408,77.14285714285711,9.0,171.875,0.988881946888691,-2.1737849759906154,28,No Definido/Transitorio
1032.9081632653063,75.57437621686316,70.67539414724534,71.9628370862841,57.14285714285714,85.71428571428571,86.42857142857133,9.333333333333334,195.3125,0.986634608655442,-3.1935937946643493,29,No Definido/Transitorio
1102.967032967033,72.63430692979122,84.41104483298335,86.12315181710184,53.84615384615385,84.61538461538461,81.42857142857133,6.5,132.8125,0.9771156594772522,-2.3844706139613376,27,No Definido/Transitorio
1043.673469387755,77.40542086542958,88.82877786092783,90.5203285436159,60.71428571428571,89.28571428571429,112.85714285714266,7.0,179.6875,0.9503121393032452,-2.6390209248104415,29,No Definido/Transitorio
1035.204081632653,100.54516122650628,92.56894633813587,94.21828844277461,53.57142857142857,71.42857142857143,103.21428571428544,9.333333333333334,0.0,0.9704691287347321,-2.8882549291031876,29,No Definido/Transitorio
1086.923076923077,75.20496326184245,87.65796237277561,89.29740875794975,65.38461538461539,76.92307692307693,91.42857142857133,5.2,125.0,0.9395280029856375,-3.24777499504375,27,No Definido/Transitorio
1040.0,90.65780884486779,84.97206115773604,86.48771929411144,55.55555555555556,85.18518518518519,162.85714285714266,6.75,78.125,0.9741404080455345,-3.288545630306855,28,No Definido/Transitorio
1065.6613756613758,66.29400464625671,80.9921794003522,82.59384083072486,51.85185185185185,81.48148148148148,111.42857142857133,6.75,70.3125,0.988736630144029,-2.6595060884198087,28,No Definido/Transitorio
1036.7724867724867,76.31895455640641,90.67469067519549,92.44457799135652,62.96296296296296,85.18518518518519,94.28571428571422,6.75,101.5625,0.786519227319648,-3.3788809116727196,28,No Definido/Transitorio
1050.8465608465608,63.141538521435166,84.44899438750716,85.89652787386065,59.25925925925925,81.48148148148148,99.28571428571422,9.0,23.4375,0.9559177487959041,-2.3458689324058524,28,No Definido/Transitorio
1056.4550264550264,75.3686599921104,103.6136708096472,105.66182244375223,66.66666666666666,85.18518518518519,101.42857142857122,6.75,140.625,0.9603877580386112,-2.0432585297432886,28,No Definido/Transitorio
892.4242424242424,141.34669565833943,72.95249362791245,73.1902006017276,42.42424242424242,60.60606060606061,252.85714285714278,11.0,343.75,0.9814443357855588,-2.8830014191114515,34,No Definido/Transitorio
948.9047619047619,133.7325801836648,124.84698586816558,127.0279945144729,53.333333333333336,76.66666666666667,218.57142857142844,7.5,85.9375,0.9732930715227605,-2.6240610012102525,31,No Definido/Transitorio
980.0985221674877,100.40220212532971,104.34615246154361,106.24708689007504,65.51724137931035,93.10344827586206,118.57142857142856,9.666666666666666,78.125,0.9906291768426178,-2.253056550829763,30,No Definido/Transitorio
945.8525345622119,77.55389158839624,72.08035953914573,73.10070688719726,41.935483870967744,64.51612903225806,90.0,6.2,171.875,0.9736969952530447,-3.1903656357857852,32,No Definido/Transitorio
951.5714285714283,88.43812469783815,72.30545496526518,73.57913161781026,40.0,56.666666666666664,139.9999999999999,7.5,117.1875,0.9782744292904269,-3.620468799119181,31,No Definido/Transitorio
910.0921658986174,74.83763421169999,75.69182056655968,76.98085525637406,41.935483870967744,74.19354838709677,116.42857142857144,10.333333333333334,15.625,0.9601576938144839,-2.726622649350416,32,No Definido/Transitorio
912.6267281105988,55.96171769012324,65.74585163189171,66.86472456414646,35.483870967741936,83.87096774193549,69.28571428571422,7.75,85.9375,0.8799226424488698,-2.140550946644218,32,No Definido/Transitorio
892.9004329004329,80.60555638707547,67.21168584618088,68.25928317789821,42.42424242424242,66.66666666666666,115.71428571428567,8.25,31.25,0.9342762728642712,-2.9574534580222327,34,Meditación
809.2063492063493,74.99150151612959,46.72355272246264,47.21711928919594,25.0,58.333333333333336,115.71428571428578,9.0,31.25,0.9736718510665875,-3.599970049012719,37,Meditación
741.9780219780221,82.6674100585012,51.966691802808015,52.61788366538164,20.51282051282051,43.58974358974359,97.85714285714289,5.571428571428571,23.4375,0.9462540728665046,-5.334059442532276,40,Meditación
934.9769585253455,77.35673259157083,66.34582660185183,67.46222477100238,38.70967741935484,67.74193548387096,72.85714285714289,10.333333333333334,23.4375,0.9743037596547367,-3.13995116619206,32,Meditación
990.6403940886698,76.42960728546228,90.16303664940838,91.69572823181959,72.41379310344827,82.75862068965517,72.85714285714278,5.8,93.75,0.98636332864417,-2.2352443410325757,30,Meditación
1018.9795918367347,87.76287121297968,92.04693337676449,93.79687908681161,60.71428571428571,85.71428571428571,144.285714285714,9.333333333333334,117.1875,0.9911175380461921,-2.0677201521346746,29,Meditación
912.4553571428571,80.34343201002454,62.22609500262602,63.22261437665881,34.375,71.875,105.71428571428567,6.4,46.875,0.9887770638213512,-3.4325566203073903,33,Meditación
944.4761904761906,66.91212144482323,66.47715263652692,67.38132745378351,40.0,76.66666666666667,109.64285714285711,5.0,54.6875,0.9880630838187747,-2.190558462100267,31,Meditación
937.3333333333334,70.16591710409602,57.08186400029404,57.862290281096215,50.0,70.0,112.14285714285711,6.0,125.0,0.9604708194455908,-3.508275800764168,31,Meditación
942.2857142857143,84.18053051092414,55.400785275558015,56.34921240634799,33.33333333333333,70.0,113.21428571428567,10.0,109.375,0.989280824175716,-4.92644827482377,31,Meditación
1049.4179894179895,75.66166454572846,63.63776018366058,64.7925805392534,44.44444444444444,81.48148148148148,115.71428571428555,9.0,78.125,0.9770903795550252,-3.9685059683861463,28,Meditación
991.0344827586206,56.28034853700415,55.42310092928827,56.4156294658614,34.48275862068966,75.86206896551724,92.85714285714278,9.666666666666666,85.9375,0.9855179087281943,-2.6346350726007497,30,Meditación
997.832512315271,55.21838526594472,61.28126619127436,62.391164281591,41.37931034482759,79.3103448275862,84.28571428571422,7.25,101.5625,0.9923978593526508,-2.4672791231291624,30,Meditación
1000.1970443349753,54.99101985783243,63.57372158212656,64.48292167022844,55.172413793103445,86.20689655172413,81.42857142857133,7.25,156.25,0.9984554924291299,-2.310875755985159,30,Meditación
1024.4387755102039,80.1598358739212,87.18751566237667,88.60454039910151,60.71428571428571,85.71428571428571,101.42857142857133,7.0,171.875,0.9912975818253958,-2.591028614334992,29,No Definido/Transitorio
835.5042016806722,119.2400863315951,52.91619492969966,53.25080823436264,26.47058823529412,67.64705882352942,189.28571428571433,11.333333333333334,31.25,0.9960227356313207,-4.100764553422764,35,No Definido/Transitorio
780.0793650793651,135.94371346139113,115.69488373497325,117.26420383159235,30.555555555555557,50.0,136.42857142857144,9.0,265.625,0.8572659583993594,-3.176392313319561,37,No Definido/Transitorio
948.4761904761905,84.30444254927761,86.38408251217808,87.66370459344128,56.666666666666664,73.33333333333333,110.0,10.0,101.5625,0.9272406412692167,-2.7251051715487344,31,No Definido/Transitorio
913.8392857142858,106.2692107869929,87.18477499039085,88.50205399624154,50.0,68.75,101.07142857142856,10.666666666666666,156.25,0.9455283265542882,-3.348481326516174,33,No Definido/Transitorio
979.2610837438422,71.25859437670996,85.2046926533144,86.68066655756911,51.724137931034484,82.75862068965517,108.57142857142856,9.666666666666666,39.0625,0.9941399227535758,-2.0898847077432596,30,No Definido/Transitorio
936.2672811059907,91.32261525523168,94.7962369011146,96.16069951577352,54.83870967741935,74.19354838709677,130.0,10.333333333333334,148.4375,0.9739000917233865,-2.8894401821973803,32,No Definido/Transitorio
937.4285714285713,75.26486190126296,66.93080443777924,68.09541853852923,30.0,66.66666666666666,68.57142857142867,10.0,164.0625,0.976551019711715,-2.7562735761484536,31,No Definido/Transitorio
