HRV_MeanNN,HRV_SDNN,HRV_RMSSD,HRV_SDSD,HRV_pNN50,HRV_pNN20,HRV_IQRNN,HRV_HTI,HRV_TINN,HRV_HFn,HRV_LnHF,ECG_R_Peaks_Count
787.6447876447876,94.51344324602468,52.393937784378146,53.066631505426145,18.91891891891892,64.86486486486487,158.57142857142856,12.333333333333334,78.125,0.9836719054976031,-4.6791867383734544,38
785.8333333333333,47.801063701157304,26.01524558629905,26.201729184252294,5.555555555555555,58.333333333333336,58.21428571428578,9.0,101.5625,0.991189018382262,-4.663380046995557,37
787.1428571428572,75.40522211270178,42.44014821790822,42.92563554488059,22.22222222222222,58.333333333333336,85.00000000000011,12.0,101.5625,0.9757855736586979,-5.396183853807812,37
752.2556390977443,39.56413322064681,28.735052710490763,29.104476286779025,7.894736842105263,39.473684210526315,51.42857142857133,7.6,46.875,0.9728512499665548,-4.107942432921066,39
827.1020408163265,63.76491724751879,36.01386954382726,36.55536236733434,14.285714285714285,60.0,88.57142857142867,11.666666666666666,23.4375,0.8597255182883387,-4.531180878244638,36
823.1428571428571,64.98111277907759,33.031143222253554,33.3219359175392,11.428571428571429,68.57142857142857,99.28571428571422,11.666666666666666,109.375,0.82668424776844,-5.506304170423479,36
866.1471861471861,43.32259868942187,43.95542152718651,44.64656666615817,36.36363636363637,60.60606060606061,70.0,6.6,70.3125,0.9786493732873444,-2.0123912469996394,34
868.4415584415584,49.78956179584122,45.74845263358473,46.38102404051403,36.36363636363637,75.75757575757575,75.71428571428567,8.25,93.75,0.9486664684965204,-2.9685227995905272,34
854.8319327731093,41.168784978835156,38.76255357530533,39.35874754155141,17.647058823529413,52.94117647058824,63.928571428571445,11.333333333333334,15.625,0.8805884836866285,-3.1898864401935936,35
813.5918367346939,67.95978210840777,35.6133026119338,36.03234992596768,14.285714285714285,42.857142857142854,88.57142857142856,8.75,210.9375,0.9768486509766389,-3.61175851941211,36
841.6734693877552,75.23351858474878,45.02366991195781,45.62419503206028,20.0,68.57142857142857,74.28571428571422,8.75,148.4375,0.9792821971196382,-4.085600838830383,36
833.1836734693878,92.59049349424859,36.822307816609985,37.01809077611639,11.428571428571429,65.71428571428571,179.28571428571422,11.666666666666666,39.0625,0.9359031477264476,-5.0347478431768575,36
881.7316017316018,52.13766800960014,42.380534374610605,42.92407887270782,24.242424242424242,42.42424242424242,55.714285714285666,6.6,109.375,0.9628720783979786,-3.1937381890742262,34
868.9177489177489,66.36136222075824,41.71086091616123,41.97870866959606,21.21212121212121,75.75757575757575,85.71428571428555,8.25,218.75,0.9794549889840719,-3.2549119045748744,34
822.1224489795918,78.36058144065841,53.81819914697786,54.614486977213325,17.142857142857142,51.42857142857142,113.57142857142844,7.0,187.5,0.9157239231180363,-3.8388816548473184,36
865.4201680672269,30.099360117798014,29.398210707902262,29.853991734955986,14.705882352941178,47.05882352941176,38.571428571428555,6.8,54.6875,0.9104903520341368,-3.2908643315319,35
815.8367346938776,72.84426598067328,37.46627134631144,37.954636127614414,14.285714285714285,57.14285714285714,99.28571428571422,8.75,210.9375,0.9358069941690529,-5.875040733442943,36
904.0625,46.63122645232122,35.49054339084917,36.075713422864126,12.5,71.875,60.357142857142776,10.666666666666666,0.0,0.9608946806087431,-3.8404359363685123,33
779.6138996138998,45.50628354689509,22.206769003372848,22.518861546810747,5.405405405405405,35.13513513513514,77.14285714285722,7.4,39.0625,0.8236545318693745,-5.718517886324289,38
737.4642857142857,52.68756830106941,31.02724111585044,31.01898485727601,10.0,35.0,72.14285714285711,5.714285714285714,85.9375,0.9249127293018303,-4.8339896658368415,41
762.1052631578946,49.99474527501518,25.92789866917074,26.125460427324185,2.631578947368421,50.0,63.928571428571445,6.333333333333333,70.3125,0.949312035924708,-3.493503284840899,39
769.0977443609023,95.53658433703717,35.124080742230994,35.572390794316284,15.789473684210526,42.10526315789473,161.78571428571422,9.5,78.125,0.9861417267578116,-5.466578535265485,39
833.7142857142857,89.56289748016204,40.22520636231412,39.42493331015591,22.857142857142858,57.14285714285714,117.14285714285722,7.0,343.75,0.9462590578805671,-3.549191241799074,36
875.021645021645,60.4385769453478,30.992304838196112,31.34988972726674,6.0606060606060606,63.63636363636363,87.14285714285711,5.5,148.4375,0.8980942446646076,-4.060870001638181,34
859.6218487394958,52.99129906470658,33.71182763069376,34.12933311825903,8.823529411764707,55.88235294117647,73.57142857142856,8.5,156.25,0.984397399567743,-4.731884932853866,35
878.7012987012986,56.14004404571255,33.411473038647145,33.94306020979149,9.090909090909092,57.57575757575758,67.14285714285711,8.25,85.9375,0.9811873459166043,-4.0830405640986305,34
861.8487394957983,53.977857312009284,27.856865355483166,28.27771105457591,8.823529411764707,50.0,90.71428571428578,11.333333333333334,23.4375,0.9385939852145124,-5.079436371293975,35
868.2683982683983,57.408709224881875,34.51097873229944,34.94655823099367,12.121212121212121,45.45454545454545,67.14285714285711,8.25,78.125,0.9833660257349127,-3.9126446850174803,34
921.8433179723502,58.583266571859376,39.436507137905785,40.06387112656225,22.58064516129032,67.74193548387096,89.28571428571422,10.333333333333334,148.4375,0.9932644266438067,-3.8547934672905857,32
879.7835497835498,38.49715271097584,26.570564502079797,26.762893504429346,3.0303030303030303,51.515151515151516,55.714285714285666,6.6,125.0,0.9894712354871901,-3.0787614601599933,34
901.9196428571429,64.71755556280704,39.78795011464166,40.1100089185824,21.875,71.875,105.35714285714278,10.666666666666666,85.9375,0.963841589025083,-3.9534185765732572,33
908.8479262672811,46.34889772568727,33.80717631018639,34.16058858989234,16.129032258064516,54.83870967741935,57.142857142857224,7.75,156.25,0.9892152627938116,-3.307244274402055,32
923.7327188940092,43.773811664822226,35.89762465376108,36.44027308114581,22.58064516129032,54.83870967741935,73.57142857142867,7.75,78.125,0.9897347899092049,-3.152850209249548,32
904.0625,69.8744377251052,42.64309064459917,43.20915344471378,18.75,65.625,90.71428571428578,8.0,242.1875,0.9791391018189494,-4.084029704954283,33
932.3041474654378,58.72532328110289,35.62178497248346,35.973411350396624,16.129032258064516,51.61290322580645,70.71428571428578,10.333333333333334,125.0,0.992728602909318,-4.052883820509234,32
902.0535714285714,61.02799139768201,52.9119158231524,53.63192692503544,25.0,56.25,96.07142857142856,5.333333333333333,101.5625,0.9825678333869438,-4.498566715609152,33
912.5806451612901,51.235642561458526,41.41625432664065,42.109544040191324,19.35483870967742,74.19354838709677,67.85714285714289,10.333333333333334,156.25,0.9636766758138328,-2.9477734605498047,32
912.3963133640552,36.21437887989179,32.271172452028615,32.82253478305414,12.903225806451612,48.38709677419355,54.285714285714334,6.2,39.0625,0.9942239720106271,-3.021221105226744,32
898.3035714285714,63.337541583160245,40.92977978126349,41.537702547665496,28.125,65.625,93.92857142857144,8.0,54.6875,0.9861781414992832,-4.383984895060238,33
909.4642857142858,56.00215128003656,53.45224838248487,54.212821948671504,31.25,75.0,65.0,8.0,195.3125,0.9397643650003625,-3.281007776491176,33
913.1797235023042,38.37996514874604,29.30603244069328,29.73418084752354,3.225806451612903,54.83870967741935,64.28571428571422,7.75,85.9375,0.9712267691558032,-3.49565030027122,32
896.1751152073733,44.74323890972291,33.43691389593772,33.970948386402746,19.35483870967742,58.06451612903226,57.14285714285711,7.75,62.5,0.9444536913197247,-3.367595918868343,32
909.5852534562212,34.02118897246662,35.080083308024776,35.673342705436184,12.903225806451612,54.83870967741935,36.42857142857133,5.166666666666667,78.125,0.9782152994193135,-2.5641500691199757,32
830.1680672268908,54.24213870338424,29.246357251669295,29.366047037603103,5.88235294117647,44.11764705882353,97.5,6.8,156.25,0.8568005716549576,-5.187658565930798,35
896.7410714285714,56.38113782494827,32.19018533031049,32.60135526557926,12.5,50.0,72.85714285714278,10.666666666666666,85.9375,0.9866639902402169,-3.9904896441395805,33
929.4930875576035,44.44908175646332,36.68954141141032,37.298650153960416,12.903225806451612,51.61290322580645,77.14285714285711,6.2,39.0625,0.9925598045316312,-3.691911856775507,32
769.4360902255639,96.78251328886337,29.977009024411387,29.505536754109865,13.157894736842104,44.73684210526316,185.35714285714278,5.428571428571429,0.0,0.938608478481262,-5.268761801995875,39
788.1746031746031,85.21118413782543,32.53345441198454,32.44995355171544,8.333333333333332,47.22222222222222,137.4999999999999,12.0,218.75,0.9938568455755356,-5.056407602897202,37
825.8775510204083,62.96759911926219,43.46695009199656,44.03344943082021,20.0,65.71428571428571,99.99999999999989,8.75,171.875,0.9417375181730361,-4.657406371537163,36
877.5757575757576,67.33680655026916,45.44002551019694,45.503184820787666,15.151515151515152,54.54545454545454,89.99999999999989,5.5,250.0,0.9808531436797229,-3.9493872538678536,34
888.9732142857143,68.71838551341826,46.862734296038695,47.637354391958006,28.125,71.875,107.14285714285711,6.4,179.6875,0.9923476986460829,-4.121656530200434,33
844.4489795918367,35.03688920081975,30.061960824195072,30.50641485733896,8.571428571428571,60.0,51.428571428571445,7.0,39.0625,0.8737389516551457,-2.830197266493259,36
787.027027027027,104.76752061699932,39.59546001140458,39.8941748818593,13.513513513513514,40.54054054054054,88.57142857142867,7.4,171.875,0.9626876613477269,-4.951682630187949,38
880.9523809523808,49.59872995960119,39.33843864596103,39.43809471413027,21.21212121212121,51.515151515151516,55.714285714285666,8.25,203.125,0.8357178058843996,-3.6863422730911126,34
765.984555984556,93.33019785661232,60.017004393142884,60.84913662430677,35.13513513513514,67.56756756756756,154.28571428571433,9.25,203.125,0.9860340156515706,-3.300554844340029,38
782.2007722007721,90.46591081614835,44.33049451296672,44.06263763082531,21.62162162162162,56.75675675675676,125.71428571428578,9.25,39.0625,0.9799977432574907,-5.319709929830177,38
786.4478764478763,62.43057061709549,24.13938173539025,24.11434132888449,0.0,45.94594594594595,110.0,7.4,46.875,0.970059318707509,-4.770514171778986,38
858.1512605042017,29.21468402604176,26.301613862553975,26.6723430492207,5.88235294117647,44.11764705882353,25.357142857142776,4.857142857142857,78.125,0.9846556323866117,-2.840415226643803,35
855.4621848739496,51.42071920362543,26.778137456516173,27.060781010403453,5.88235294117647,35.294117647058826,74.99999999999989,8.5,93.75,0.9677034088579265,-4.531149939146556,35
862.4789915966387,36.70623966195855,21.642510676866223,21.85886519541708,0.0,35.294117647058826,56.428571428571445,8.5,62.5,0.9896444790861033,-4.103800397500222,35
771.814671814672,73.66394910542041,33.16795710749769,33.55736184284509,16.216216216216218,45.94594594594595,124.28571428571422,7.4,62.5,0.9972462656107742,-4.233609173009664,38
908.2142857142858,43.20595379936622,30.8812842924697,31.364338774525763,9.375,59.375,57.85714285714289,5.333333333333333,109.375,0.9605461168409847,-4.129149489052445,33
881.2442396313365,73.31392006690162,67.98058946653589,69.14212432946354,41.935483870967744,74.19354838709677,125.0,10.333333333333334,250.0,0.9935030697356224,-2.216464922181823,32
920.5529953917052,54.076888344037016,48.86883736396969,49.43841317398467,32.25806451612903,61.29032258064516,77.85714285714289,6.2,101.5625,0.9821123677971777,-2.9971909467652513,32
831.1020408163265,80.26373522700847,39.19584832364678,39.77703967308354,25.71428571428571,65.71428571428571,142.1428571428571,11.666666666666666,23.4375,0.9724686607449498,-4.933332970320638,36
922.5892857142858,49.66436062470449,43.746531885486625,44.45298177091893,34.375,65.625,73.21428571428578,10.666666666666666,70.3125,0.9849468048290587,-3.50660257357535,33
867.922077922078,73.38315969048726,46.45878138034767,47.199989818233476,21.21212121212121,63.63636363636363,81.42857142857133,11.0,140.625,0.9643914816426641,-4.44732779934962,34
887.8787878787879,36.03980440493638,32.0594155038575,32.473212741485625,9.090909090909092,51.515151515151516,47.14285714285711,5.5,78.125,0.9874653671919035,-3.0516248754588613,34
828.2448979591836,95.68109653744638,52.402656567832004,53.016007074044694,25.71428571428571,57.14285714285714,168.57142857142856,11.666666666666666,93.75,0.9146298165468961,-4.317084900180027,36
733.5897435897436,111.62931204535772,33.55182598388417,33.67774050085361,10.256410256410255,41.02564102564102,212.8571428571429,9.75,23.4375,0.9920090093342759,-5.477016416993745,40
778.1081081081081,69.00906481424553,35.903467199089555,35.67669223236223,16.216216216216218,67.56756756756756,91.42857142857144,7.4,54.6875,0.9899691550779308,-4.565538773549668,38
804.6428571428571,67.25988498562783,44.00768552014125,44.64640322050827,16.666666666666664,61.111111111111114,100.357142857143,12.0,117.1875,0.9396247830251968,-3.4307577961839755,37
749.8120300751879,67.45566749324186,36.52213739064029,37.016789321485774,23.684210526315788,47.368421052631575,84.99999999999989,9.5,78.125,0.9861048321118998,-4.068072498881882,39
724.1428571428571,105.21752405312637,61.27205548075086,62.06943735945102,35.0,57.49999999999999,90.0,8.0,93.75,0.9959893287866937,-3.7467750895165177,41
775.5263157894736,36.96746688063778,27.339260968291253,27.715017658960456,7.894736842105263,44.73684210526316,53.92857142857133,5.428571428571429,78.125,0.9785025158721902,-3.27623258865718,39
774.3609022556391,63.10843710473783,40.840588486867674,41.403637521061924,15.789473684210526,60.526315789473685,78.92857142857133,7.6,93.75,0.9710089940379415,-3.210108466669948,39
755.375939849624,43.47106513122583,23.850286856176332,24.17214214175126,2.631578947368421,36.84210526315789,63.92857142857133,7.6,132.8125,0.9834380002558144,-5.041336978001366,39
723.4065934065935,84.28037155528453,36.55477181767546,36.99039017984788,15.384615384615385,51.28205128205128,123.57142857142856,13.0,132.8125,0.9607475431931733,-4.624336149531166,40
731.2087912087914,72.12334170758903,43.386455637220145,43.85222878753724,17.94871794871795,64.1025641025641,87.14285714285722,13.0,70.3125,0.9853769328449701,-3.4993567529703142,40
643.7777777777778,60.451421453948676,32.83313634577964,32.69417122411509,6.666666666666667,40.0,77.14285714285711,11.25,85.9375,0.9128587302945287,-5.341447975531043,46
703.0662020905924,78.16228602526205,40.209273983568956,40.72072759268499,19.51219512195122,68.29268292682927,108.57142857142867,10.25,242.1875,0.9918552088407391,-3.687896823408545,42
687.8911564625851,49.80823164693497,32.94489116173457,33.345932578235015,11.904761904761903,50.0,67.14285714285711,8.4,132.8125,0.9921789437742197,-3.088309438462437,43
743.2234432234432,47.55540377742283,38.25054495094205,38.741056408174146,17.94871794871795,61.53846153846154,69.28571428571422,6.5,85.9375,0.9791721618422425,-2.5785190456442635,40
724.5054945054947,53.478906029093174,34.13028679789481,34.531648597203855,12.82051282051282,46.15384615384615,70.0,9.75,132.8125,0.970671682789317,-2.9492373069943403,40
747.1428571428572,84.83129147248302,50.96227622743531,51.64567566621793,23.076923076923077,71.7948717948718,118.57142857142856,9.75,70.3125,0.995929143424655,-3.3870414610728434,40
766.3533834586466,83.1970775243687,63.75110178254721,64.42983986857317,34.21052631578947,68.42105263157895,142.5,12.666666666666666,179.6875,0.9943808509625177,-2.6052235901640777,39
781.2741312741314,74.24127469884745,49.245440181653436,49.93684057534307,29.72972972972973,62.16216216216216,95.71428571428578,7.4,179.6875,0.9668680071118003,-3.5788766499198497,38
768.8030888030888,87.948728566179,63.95505791652898,64.81110576025674,32.432432432432435,67.56756756756756,145.71428571428567,12.333333333333334,132.8125,0.9911253956344237,-3.3600441655380258,38
798.2239382239383,83.28053116642062,59.52666659809853,60.349591632723374,27.027027027027028,64.86486486486487,120.0,7.4,203.125,0.9879191886654048,-3.400334579751887,38
776.3706563706564,63.04768611940271,35.360148982356144,35.85441895499889,18.91891891891892,48.64864864864865,92.85714285714289,9.25,148.4375,0.9895957541143237,-4.351120447328956,38
757.985347985348,63.764569278272425,47.359946729728804,47.99471139133388,35.8974358974359,69.23076923076923,109.99999999999989,13.0,31.25,0.9913675608757548,-2.967937474235582,40
848.9075630252102,47.82474036947271,37.54115449432599,38.11751918759532,14.705882352941178,47.05882352941176,70.71428571428555,6.8,109.375,0.9867720969092367,-2.9664079552207823,35
761.9172932330827,61.16110967392596,25.910874439712703,25.639100723990197,7.894736842105263,42.10526315789473,97.142857142857,12.666666666666666,46.875,0.9717191175310601,-4.578039431305294,39
697.0034843205574,59.535450661897094,37.32715267108667,37.78147458851599,17.073170731707318,53.65853658536586,78.57142857142856,10.25,70.3125,0.9840961500286171,-3.267240377357717,42
795.2777777777778,80.03848887863906,59.53463847074713,60.11687582002649,36.11111111111111,61.111111111111114,115.71428571428578,12.0,93.75,0.9960735753894226,-2.9680417420815224,37
784.6718146718147,59.628145366105706,53.703540803047424,54.46353201961685,37.83783783783784,78.37837837837837,97.14285714285722,7.4,70.3125,0.9835245316782549,-2.7049198514600676,38
746.7293233082706,55.58286439760715,43.85328797214651,44.45646632162716,28.947368421052634,60.526315789473685,82.5,9.5,62.5,0.998435584121481,-2.573442604152405,39
757.3308270676691,69.2694293265888,45.07700098332078,45.68991333352825,28.947368421052634,71.05263157894737,98.21428571428555,9.5,85.9375,0.9963268518973727,-2.9216019688988024,39
733.1071428571428,80.656572773421,59.61194939546404,60.348784732317064,32.5,65.0,103.21428571428578,10.0,93.75,0.9869011676300458,-3.618237670347429,41
737.1794871794873,72.72912767821626,46.20739684394098,46.67241703778687,20.51282051282051,58.97435897435898,101.42857142857144,7.8,85.9375,0.992544489144411,-2.9909507609977566,40
812.0634920634919,90.55156187472807,65.25706065258056,66.19390193258911,41.66666666666667,75.0,108.21428571428578,9.0,101.5625,0.9838672351642511,-2.6411879477179863,37
807.8571428571429,82.64822359236624,65.97066226652103,66.6091274015688,38.88888888888889,72.22222222222221,101.07142857142867,9.0,140.625,0.975742779941845,-2.9033303453370327,37
830.3265306122447,96.03176102396765,59.5924534165332,60.47509768847601,40.0,85.71428571428571,162.85714285714266,11.666666666666666,85.9375,0.9925776454887292,-4.037212099907297,36
658.7707641196013,104.92006369761619,25.822711694580384,25.277079814393268,4.651162790697675,27.906976744186046,77.85714285714266,5.375,0.0,0.9531435921503977,-6.165878619382707,44
796.984126984127,102.61182637912835,37.91120514067918,37.2132033078146,13.88888888888889,44.44444444444444,176.07142857142856,7.2,210.9375,0.9495404327115005,-4.485441596903838,37
914.2396313364055,76.2162014941685,59.52876169875998,60.521310244131605,12.903225806451612,54.83870967741935,55.71428571428578,10.333333333333334,164.0625,0.9046295530443775,-3.5412574155374488,32
928.8479262672811,33.977622397507176,28.914605682400516,29.338472243009456,9.67741935483871,35.483870967741936,60.71428571428578,5.166666666666667,93.75,0.9888862505991856,-3.0345592718539343,32
855.021645021645,80.14027976193734,52.109211258271635,52.62870599336333,27.27272727272727,60.60606060606061,85.71428571428567,8.25,210.9375,0.926373340709548,-3.8173594862048406,34
875.5357142857144,70.69275378557563,41.67888782808283,42.34294711127257,28.125,53.125,98.92857142857133,8.0,171.875,0.7403762125635286,-4.991967887086193,33
895.5357142857142,98.01032445514352,122.90910914678948,124.88736202230417,40.625,65.625,114.28571428571422,10.666666666666666,164.0625,0.9603426815088456,-2.1891614190114668,33
904.6428571428571,76.80931477416242,75.92050865194275,77.1745682106134,46.875,62.5,130.3571428571429,8.0,234.375,0.9934422131546528,-2.38855764281887,33
909.2857142857142,51.447769074328946,51.94378386320784,52.79774135519235,18.75,59.375,68.57142857142856,10.666666666666666,125.0,0.9478658078674258,-3.065203971851138,33
799.8015873015873,67.77010768731864,38.1136860094178,38.469475323186145,13.88888888888889,47.22222222222222,97.14285714285722,9.0,179.6875,0.9938804733997447,-3.328530286086656,37
824.7755102040816,63.888542331106756,39.33572065652066,39.90092864044419,11.428571428571429,42.857142857142854,120.71428571428578,11.666666666666666,15.625,0.7980160676812544,-5.4160295777417415,36
805.1190476190477,102.97067147335434,51.699964191245755,51.769975254479554,25.0,55.55555555555556,142.1428571428571,12.0,296.875,0.9550401879214353,-4.802525571551915,37
919.7235023041475,66.27239126661827,38.21083651545571,38.61333854002605,22.58064516129032,54.83870967741935,90.0,7.75,257.8125,0.9813312810415014,-3.9632010218794993,32
860.9090909090909,46.906629712080104,32.73852813566602,32.632849962001906,12.121212121212121,45.45454545454545,57.14285714285711,8.25,117.1875,0.9091110536888403,-3.2737096292650145,34
750.3663003663004,70.98033641620071,38.72081902534546,39.16236570293329,25.64102564102564,51.28205128205128,95.71428571428567,7.8,156.25,0.9799128765826652,-4.1717525821213535,40
849.7058823529413,88.43012007383395,56.198363229587024,57.032292927875574,26.47058823529412,61.76470588235294,120.00000000000011,11.333333333333334,0.0,0.9694905187276771,-4.6330392742135365,35
919.815668202765,47.898336124203674,37.67115137951725,37.98900417474864,19.35483870967742,74.19354838709677,64.28571428571445,5.166666666666667,179.6875,0.98810023550789,-2.6785081882061976,32
900.1339285714286,71.24340919818746,53.95362893308823,54.20792389040767,28.125,68.75,90.357142857143,10.666666666666666,195.3125,0.9919744994243945,-3.0410099561485304,33
875.2813852813853,40.258230316608646,43.23641700120443,43.62286380116066,12.121212121212121,60.60606060606061,45.714285714285666,6.6,132.8125,0.9908712934149417,-2.6664424930254067,34
815.3061224489797,55.72028779194539,36.01303618844437,36.536474454799745,14.285714285714285,42.857142857142854,76.42857142857144,8.75,125.0,0.9912081320753783,-3.4456824975214864,36
804.563492063492,55.84319930817997,29.644147992547907,30.076219417455412,8.333333333333332,55.55555555555556,84.28571428571433,12.0,54.6875,0.9479686050269389,-4.787698544871969,37
849.7402597402597,73.72509484829172,40.3097066347498,40.9543010302568,21.21212121212121,63.63636363636363,101.42857142857144,8.25,179.6875,0.8957250553908427,-4.26200173469551,34
908.125,41.642444133244496,36.46763063685334,36.88525821280772,18.75,59.375,68.92857142857156,8.0,117.1875,0.9133618874989842,-3.456795069432642,33
860.9090909090909,37.90229480865931,36.61193348444449,37.16943395152121,15.151515151515152,69.6969696969697,38.571428571428555,6.6,85.9375,0.9233655745962664,-2.895875861373961,34
887.5,48.47645906631007,37.662092078421544,38.041302063897604,18.75,65.625,72.49999999999989,10.666666666666666,101.5625,0.9698887113676488,-3.3165563937390448,33
859.7402597402597,58.40181729579,43.82173419383472,44.5190217942191,18.181818181818183,66.66666666666666,95.71428571428578,11.0,39.0625,0.9424947055199799,-4.518941309374182,34
888.0803571428571,35.55931238324484,25.33384728582521,25.749165625177092,3.125,46.875,48.92857142857133,8.0,101.5625,0.9669319541058812,-4.085474520187411,33
887.7056277056276,37.51009965006192,26.48281113692965,26.848352260269287,0.0,51.515151515151516,49.999999999999886,8.25,70.3125,0.9239194157474896,-4.228115382337552,34
890.8482142857142,62.96477941155898,44.38000961532366,44.67476893228381,21.875,65.625,82.14285714285711,8.0,218.75,0.9969212303761036,-2.749791205661103,33
828.0,97.40399897132686,34.328579646589226,34.228397256167796,17.142857142857142,54.285714285714285,159.28571428571433,8.75,0.0,0.9815795615715679,-4.401347253084389,36
835.4693877551022,115.2727782743121,35.101464999883646,34.40637984640509,14.285714285714285,57.14285714285714,180.71428571428567,7.0,0.0,0.85080007997587,-5.650188118343922,36
904.5089285714286,52.720722416208396,38.59275737310026,39.160714417049626,12.5,53.125,58.214285714285666,6.4,132.8125,0.9262445705739741,-3.728224984783889,33
899.375,41.242929850736964,33.716472630782086,34.22254805970655,18.75,53.125,56.78571428571422,8.0,78.125,0.9290483682307161,-4.289014044104287,33
917.1428571428572,37.95091710148171,36.4215679542342,36.9935105352519,19.35483870967742,54.83870967741935,54.28571428571445,6.2,125.0,0.9827965234651933,-2.405630155303892,32
896.8831168831168,57.452791784725285,51.098893713812515,51.795843598576646,39.39393939393939,66.66666666666666,84.28571428571422,8.25,171.875,0.9503034749784682,-3.2920139676217874,34
877.4025974025974,36.0421637748524,38.91382420536066,39.51306231466442,24.242424242424242,63.63636363636363,47.142857142857,8.25,148.4375,0.8831124313938428,-2.966471325543698,34
857.8571428571429,49.354835775952516,44.8194343393129,44.96756372387055,14.705882352941178,50.0,26.071428571428555,4.857142857142857,242.1875,0.7364523566971912,-3.4987316804916015,35
813.795918367347,102.16089213593405,39.30977109118416,39.724028900856986,17.142857142857142,42.857142857142854,145.71428571428578,11.666666666666666,0.0,0.9536344235365745,-5.826814547406458,36
938.952380952381,35.72695998424947,30.840900669675968,31.26983134697214,6.666666666666667,53.333333333333336,42.85714285714289,7.5,62.5,0.8730925374687846,-3.8409938883101384,31
891.2946428571429,65.76271444813217,41.419830636788596,42.02844476031459,12.5,62.5,110.35714285714278,6.4,195.3125,0.9555977997795597,-4.632274573340894,33
874.8484848484849,103.5689281680564,42.86235087403607,43.52832252397458,21.21212121212121,51.515151515151516,141.42857142857144,8.25,265.625,0.9627197511475358,-5.8043617828063585,34
830.7983193277312,63.340517617913456,26.980604132998394,27.130679086246435,2.941176470588235,29.411764705882355,95.71428571428578,8.5,203.125,0.7290545820974779,-5.558690042740995,35
829.2857142857143,80.85370864473634,29.797294975866293,29.461645559268863,8.823529411764707,41.17647058823529,159.9999999999999,8.5,210.9375,0.8821144089695616,-5.710136629193025,35
785.5984555984556,43.866911660061646,36.361594201572345,36.85627712600998,16.216216216216218,54.054054054054056,68.57142857142867,9.25,109.375,0.6851077753322263,-3.0215496979365386,38
746.3369963369963,112.26062724198641,64.49006784535253,65.05638884904457,20.51282051282051,41.02564102564102,126.42857142857144,9.75,39.0625,0.98280159481488,-5.106486248833365,40
929.0783410138248,79.50659784121866,52.859716797046374,53.50830435328942,41.935483870967744,61.29032258064516,112.85714285714289,7.75,109.375,0.9903188841867926,-3.9359917066088004,32
921.8303571428572,56.65486838090267,42.174283369709066,42.861187725148795,21.875,71.875,80.71428571428578,8.0,195.3125,0.9952743924354249,-3.823444289354014,33
920.5529953917049,47.86556772944287,38.38756884952303,38.96250084335062,19.35483870967742,67.74193548387096,70.0,10.333333333333334,39.0625,0.9994445325366097,-3.476811548330659,32
886.1160714285714,92.00440380377998,60.07018059274528,61.061346532626054,46.875,75.0,150.0,10.666666666666666,46.875,0.9817986451960254,-3.1316292973787996,33
915.1785714285714,72.52136413106969,46.13929734738422,46.87949524930844,21.875,68.75,126.78571428571433,6.4,226.5625,0.9789585842881655,-4.193031442256957,33
916.6071428571429,63.10982934201826,54.276618204704874,54.62972091933455,18.75,65.625,79.28571428571433,8.0,242.1875,0.968720157498184,-3.5194117474088653,33
907.9910714285714,54.666213646249375,43.88701154956682,44.57504219468434,12.5,68.75,80.71428571428578,8.0,85.9375,0.9888030581276112,-3.7541853744614673,33
897.7232142857143,70.23318573536667,47.86144144667523,48.623357078998296,15.625,68.75,110.0,10.666666666666666,0.0,0.9951703464353655,-3.3078014176456723,33
908.8839285714286,149.53372091246703,87.3752284484116,88.69838777483845,34.375,68.75,279.9999999999998,10.666666666666666,375.0,0.9949400799520355,-5.134702877129204,33
848.4873949579833,111.9490238575932,69.00521163758431,69.95056342473923,38.23529411764706,67.64705882352942,181.78571428571422,11.333333333333334,54.6875,0.9935227859974631,-4.622507022460784,35
884.3290043290043,114.74154900213253,71.58643270158655,72.46205108831982,30.303030303030305,63.63636363636363,194.28571428571433,11.0,171.875,0.9910922910847165,-3.4191807877535227,34
931.1520737327188,96.16837512825091,68.04510308921405,69.14105562934196,35.483870967741936,64.51612903225806,167.8571428571429,10.333333333333334,23.4375,0.9934953557603411,-3.820983798736365,32
819.3650793650793,88.15996886421463,54.70940991756078,55.485818384928855,38.88888888888889,83.33333333333334,121.07142857142867,12.0,117.1875,0.9727876651984925,-4.4369600653618235,37
862.0779220779222,111.34102038349164,68.60118402024553,69.6345558091573,24.242424242424242,54.54545454545454,184.28571428571433,8.25,117.1875,0.9835064051885059,-4.426959516368964,34
762.6315789473684,115.69284625056329,41.02654085595844,40.3083050168434,15.789473684210526,44.73684210526316,105.0,7.6,70.3125,0.9304501563905779,-4.801635635998705,39
890.4464285714286,99.32056047324187,47.90955929962619,48.15011090042786,25.0,65.625,87.85714285714278,8.0,304.6875,0.9733490464032717,-3.53060542710077,33
883.9285714285713,38.011813416143035,37.86605407683207,38.42625007978538,15.625,62.5,67.85714285714266,8.0,23.4375,0.9727839294271742,-2.9140828343606207,33
903.2258064516129,26.827663004893793,27.840654460991516,28.221003752165387,3.225806451612903,41.935483870967744,37.857142857142776,5.166666666666667,101.5625,0.883535477478237,-2.46058850213582,32
920.6451612903224,33.19462031177925,42.18843378911136,42.865899488558185,22.58064516129032,74.19354838709677,51.428571428571445,7.75,109.375,0.9488327109110066,-1.992402813722386,32
890.3030303030303,43.012749616374386,39.23535733628689,39.84829692233119,21.21212121212121,66.66666666666666,57.142857142857,8.25,117.1875,0.9422018602418276,-3.3131628345946016,34
912.9464285714287,74.49451115506251,43.099926759055464,43.75219985691587,15.625,50.0,80.0,8.0,234.375,0.9198841617074953,-4.0874593134203945,33
911.4285714285714,24.422224092509538,30.03180232282235,30.516582296197555,6.25,59.375,34.64285714285711,5.333333333333333,85.9375,0.8976341813656781,-2.3594783349054587,33
787.2972972972974,87.42199878278521,38.03045086169456,38.2814115766805,10.81081081081081,56.75675675675676,157.1428571428571,7.4,23.4375,0.8158250322633529,-5.418857115021024,38
885.1515151515151,100.35901078201863,33.3474672415848,32.631431462456646,15.151515151515152,36.36363636363637,60.0,11.0,242.1875,0.9736185976690237,-3.913181296484557,34
925.0230414746544,99.49455320800291,44.951220727561534,45.710411371126035,25.806451612903224,58.06451612903226,137.14285714285722,10.333333333333334,273.4375,0.9166852104766372,-5.520168496613855,32
904.7321428571429,98.1114878864832,38.48086312519221,38.52269778272383,18.75,56.25,144.6428571428571,8.0,304.6875,0.9620355491836484,-4.839797637178502,33
924.2396313364056,60.295738131864354,44.75177190274566,45.516711801808434,16.129032258064516,61.29032258064516,64.28571428571433,6.2,179.6875,0.9789199872200949,-3.1857519023037804,32
777.2586872586874,61.876713772623184,30.308317411370574,30.73655786899287,8.108108108108109,45.94594594594595,84.28571428571422,7.4,117.1875,0.9161252590111225,-5.291434754870872,38
784.5945945945945,73.50793618370814,40.75533992529449,41.32844260855145,16.216216216216218,48.64864864864865,75.71428571428567,12.333333333333334,15.625,0.94543592274016,-4.807843716277777,38
894.9107142857142,58.5674242758445,38.73493251198923,38.978620992129784,21.875,62.5,63.928571428571445,6.4,125.0,0.9652366165129166,-3.7319966962275632,33
916.2672811059907,48.20545233981705,35.021859063232185,35.60989670216182,16.129032258064516,58.06451612903226,73.57142857142856,7.75,132.8125,0.9209844483991553,-3.652890797092334,32
874.5887445887447,69.58675173706571,35.95898315286119,36.528027917862424,18.181818181818183,57.57575757575758,78.57142857142844,8.25,242.1875,0.9904782019634881,-4.9471498943264205,34
840.2100840336135,70.6898006085257,47.881527676554896,48.49656823413961,29.411764705882355,67.64705882352942,107.49999999999989,11.333333333333334,54.6875,0.985334606268252,-2.7619432737261156,35
804.2857142857142,98.22981324380359,26.06003385322986,25.30621926171311,5.555555555555555,44.44444444444444,188.57142857142844,12.0,0.0,0.9736487544705229,-5.840939291532794,37
788.4942084942085,91.15655588571923,39.118692575845856,39.29422707191399,13.513513513513514,45.94594594594595,179.9999999999999,9.25,218.75,0.9598202382317378,-4.093970006645942,38
908.4821428571429,71.5307448964275,38.47915229433106,39.1138399178383,9.375,53.125,48.57142857142867,5.333333333333333,210.9375,0.971943249859703,-4.865525190168591,33
1000.1477832512315,31.245629029791928,30.538175697430127,30.985461129783598,10.344827586206897,51.724137931034484,22.857142857142776,4.833333333333333,109.375,0.8956299611398585,-1.9307074077936701,30
874.978354978355,74.86903634739055,39.178424924846546,39.219571466851214,24.242424242424242,54.54545454545454,95.71428571428567,11.0,164.0625,0.974584557830147,-3.6825179503912024,34
882.4242424242424,61.44256988391188,43.07607769270266,43.75290359968759,9.090909090909092,54.54545454545454,78.57142857142844,8.25,179.6875,0.9571198763464166,-4.210114198944929,34
888.3035714285714,71.66544823946013,45.46301913954265,46.10461241972014,28.125,71.875,109.64285714285711,8.0,179.6875,0.9728478238990116,-4.421656280318861,33
858.9495798319327,80.26341051715481,36.02462567350995,36.58188601839654,17.647058823529413,55.88235294117647,101.42857142857133,6.8,226.5625,0.9587954531649647,-4.984963307563377,35
912.8125,80.24442939941636,62.33813800265385,63.308288824118826,28.125,68.75,98.21428571428578,10.666666666666666,195.3125,0.8965474047193577,-4.069591380083471,33
901.9196428571429,79.33695722319553,38.15701596060385,38.64083191026792,21.875,59.375,82.14285714285722,8.0,148.4375,0.9676709196086432,-4.807811336445577,33
920.0446428571429,57.136502382824084,37.47283413651164,38.07278524196453,12.5,59.375,102.5,8.0,164.0625,0.9154153976116521,-4.1134633213975444,33
913.75,72.48413596838697,71.97486943476463,73.08245033420131,25.0,56.25,76.42857142857144,8.0,234.375,0.927984713418399,-3.1290210359659807,33
945.6190476190476,50.89063674469551,27.72768961323367,28.20846152662363,6.666666666666667,50.0,81.07142857142867,10.0,15.625,0.8564002212896088,-5.758039665607514,31
922.4423963133639,86.35411475914151,43.337781038097944,44.072664073188186,22.58064516129032,51.61290322580645,99.28571428571433,10.333333333333334,226.5625,0.9537682398715448,-5.454097671862093,32
877.056277056277,112.02731729652164,33.25074803516395,32.68891012702865,15.151515151515152,48.484848484848484,144.28571428571422,8.25,312.5,0.9394614519903087,-5.247436087677417,34
751.9924812030074,116.06555172467043,53.81834986441956,53.44857929055925,15.789473684210526,42.10526315789473,133.21428571428578,7.6,179.6875,0.9385396686806408,-5.441597970264357,39
948.3333333333334,37.20926865632462,39.59151026077516,40.25185864352814,26.666666666666668,63.33333333333333,49.285714285714334,7.5,78.125,0.9509441038458084,-2.0394931026061633,31
944.1474654377881,28.906028462192786,27.822322560366196,28.297579240131363,9.67741935483871,38.70967741935484,42.85714285714289,7.75,62.5,0.9369765255001687,-2.3263782545168534,32
940.0460829493088,29.9897575961508,38.489330618089134,39.122110451192334,19.35483870967742,64.51612903225806,40.00000000000023,6.2,78.125,0.9659204200341514,-2.0186282385528274,32
898.7053571428571,31.431418754556592,40.77669240932415,41.43418575231866,18.75,71.875,45.714285714285666,8.0,39.0625,0.9942373699434022,-2.1234892863931885,33
908.4331797235026,88.13437084925785,47.38466125708803,48.19228044935919,19.35483870967742,54.83870967741935,60.71428571428578,6.2,242.1875,0.9373503840705577,-4.904296108279738,32
863.7394957983192,71.57734697072127,27.961011816781273,28.092234229321328,5.88235294117647,44.11764705882353,129.28571428571433,11.333333333333334,31.25,0.9648627141523914,-4.602301216068801,35
908.8392857142857,77.80009959529308,32.5814925029464,32.89105309519255,6.25,50.0,58.57142857142867,6.4,226.5625,0.9271779007299904,-4.630458302775213,33
790.3088803088804,63.59963270827564,59.54094991309164,60.35463706910547,24.324324324324326,75.67567567567568,81.42857142857156,9.25,148.4375,0.9588417716137837,-2.2038694517625337,38
836.8163265306122,99.17431372848358,71.61404491139588,72.42382765083163,42.857142857142854,77.14285714285715,161.42857142857133,11.666666666666666,0.0,0.997540040581741,-2.9447488422787895,36
851.8907563025209,103.72452967681856,56.154328383177535,57.00422848836297,32.35294117647059,67.64705882352942,130.0,11.333333333333334,0.0,0.9412260993613297,-5.163796580660645,35
959.047619047619,49.44496059810311,46.16084232147727,46.92371174616725,16.666666666666664,50.0,48.571428571428555,7.5,125.0,0.9558266993701988,-3.4496786320390016,31
928.8018433179724,26.9443790263344,33.32584950001964,33.88670392338951,12.903225806451612,51.61290322580645,25.71428571428578,5.166666666666667,85.9375,0.9439200057246376,-1.9275628588524876,32
886.2770562770563,61.13398987972828,38.14914340921881,38.7356760673542,12.121212121212121,54.54545454545454,92.85714285714278,11.0,70.3125,0.8844402074974378,-4.386313940448045,34
858.0252100840336,98.37832563296334,46.10157911378056,46.78497074852811,32.35294117647059,52.94117647058824,128.57142857142867,11.333333333333334,125.0,0.95906915115999,-4.865055912004739,35
775.7142857142857,53.90110201272274,33.53172255094511,33.869545266121484,10.81081081081081,48.64864864864865,84.28571428571433,7.4,164.0625,0.98306416408009,-3.2270551579818716,38
830.4081632653063,111.20618371991543,111.41240994627128,113.08064050109908,25.71428571428571,62.857142857142854,127.85714285714289,8.75,460.9375,0.852554961638659,-1.9931267449173826,36
931.0138248847924,70.536518788311,42.21422528397897,42.91446631601474,35.483870967741936,54.83870967741935,92.14285714285711,6.2,132.8125,0.9955326862015637,-4.038092628574576,32
926.0714285714286,54.52650936775127,46.28104886312502,46.903970456569425,28.125,68.75,71.78571428571445,8.0,109.375,0.9712808305956072,-3.468527638281836,33
928.2949308755761,57.85792986512199,46.61829368523101,47.2189016968543,22.58064516129032,64.51612903225806,95.71428571428567,10.333333333333334,62.5,0.9969769174408727,-4.663630129669148,32
895.7589285714286,66.99167642577505,47.097450552918396,47.8758818804707,28.125,71.875,86.78571428571433,8.0,171.875,0.9952581619081808,-4.852128155692847,33
925.852534562212,43.63165991299462,33.84940638955388,34.16923976053328,12.903225806451612,64.51612903225806,61.42857142857156,7.75,85.9375,0.9947409693816808,-3.381220131505955,32
912.8571428571428,67.12056367483223,45.554781255518,46.288876617629924,32.25806451612903,64.51612903225806,113.57142857142856,7.75,0.0,0.9793193291100574,-4.091215317378908,32
931.1981566820277,97.4610313014348,62.00888678904278,62.89372349510388,32.25806451612903,74.19354838709677,160.71428571428567,10.333333333333334,257.8125,0.9868549751671887,-4.661875492781295,32
888.5281385281386,119.20360992197,74.08153602343728,75.26679286793143,21.21212121212121,57.57575757575758,234.28571428571433,6.6,0.0,0.9684497083311808,-4.715462564822025,34
892.5892857142857,89.37677384217785,38.334311271646634,38.37967926595249,9.375,62.5,128.92857142857144,10.666666666666666,85.9375,0.9825453800228748,-4.82351158605136,33
883.8095238095239,91.50085498280896,75.83001599980454,76.84764676315659,36.36363636363637,66.66666666666666,151.42857142857144,16.5,46.875,0.9794843554755707,-3.9763633227859407,34
887.3660714285713,62.91797368092231,38.37722058601736,38.87353950610517,21.875,53.125,88.57142857142844,8.0,125.0,0.95880057489368,-4.244692077240547,33
883.5714285714287,54.94745829554105,38.191506626563545,38.69950857583868,18.75,53.125,62.14285714285711,10.666666666666666,93.75,0.9889863159157228,-3.6157723594106677,33
864.5021645021645,117.60585831373085,70.33946478416259,71.4041288824497,42.42424242424242,78.78787878787878,208.57142857142856,11.0,281.25,0.9947908383082781,-4.171776318383783,34
748.9010989010991,113.68992330672444,29.468073349623243,29.604690775473404,12.82051282051282,48.717948717948715,102.85714285714289,9.75,117.1875,0.9698429673429669,-6.722975808965025,40
952.952380952381,53.531095928371556,46.31000396541298,47.06030987634896,20.0,56.666666666666664,50.71428571428578,6.0,164.0625,0.9043325974596307,-3.902771451586234,31
913.6405529953918,49.31757246355104,46.27924704965492,46.98061348717411,29.03225806451613,74.19354838709677,73.57142857142867,10.333333333333334,31.25,0.9204211398840618,-2.796937641147551,32
