HRV_MeanNN,HRV_SDNN,HRV_RMSSD,HRV_SDSD,HRV_pNN50,HRV_pNN20,HRV_IQRNN,HRV_HTI,HRV_TINN,HRV_HFn,HRV_LnHF,ECG_R_Peaks_Count
601.9642857142857,55.96865399609505,92.08752845104661,93.083052598418,6.25,12.5,20.714285714285666,3.6923076923076925,281.25,0.5861267923484909,-2.443590249112342,49
615.327380952381,22.073849885056497,12.143304121936032,12.273971664102195,0.0,8.333333333333332,37.85714285714266,4.8,62.5,0.9795729302284903,-3.8869639043247917,49
612.8267477203649,100.36247056511091,132.93342497171892,134.40152194764627,4.25531914893617,14.893617021276595,40.0,5.875,85.9375,0.8281950163015451,-4.3680192804022475,48
647.3650793650793,57.59396255493112,35.847155436320136,36.16864409810062,8.88888888888889,31.11111111111111,75.71428571428555,9.0,46.875,0.976454162498123,-4.5580024228081015,46
613.7202380952382,31.172958297074896,10.006511123858605,9.811510604320238,0.0,6.25,41.785714285714334,3.2,0.0,0.8529569449213097,-5.486640250290579,49
622.1884498480243,42.12822260252284,13.440856017020456,13.33096695948679,0.0,14.893617021276595,69.28571428571422,6.714285714285714,23.4375,0.9729699472543775,-5.125949240971499,48
699.0476190476192,35.323530169566666,23.092214560757483,23.36734585196309,4.761904761904762,33.33333333333333,52.142857142857224,4.2,78.125,0.9804286759479941,-3.1446439199094764,43
646.5079365079365,28.664710637844397,11.061474368878596,10.860424880273234,0.0,4.444444444444445,27.14285714285711,6.428571428571429,101.5625,0.9857358552806854,-3.250816036250073,46
619.0273556231002,27.26697086867251,9.656937040696999,9.674175300828404,0.0,6.382978723404255,30.714285714285666,6.714285714285714,70.3125,0.9285507311853138,-5.776142483957163,48
601.4868804664724,13.209327202484655,6.445084611256722,6.47644841997781,0.0,0.0,12.857142857142776,2.7222222222222223,23.4375,0.9915406932682017,-3.6700386938643446,50
580.4285714285713,16.023332633113107,6.362635619640773,6.426141426054607,0.0,0.0,15.71428571428578,3.125,39.0625,0.9233006760251002,-5.599215843857182,51
581.5428571428571,19.42068095646994,7.528925202325189,7.586330385541446,0.0,0.0,27.14285714285711,3.5714285714285716,0.0,0.9728875367913807,-5.00890923250588,51
624.5896656534956,78.68875270423612,54.65224414966414,55.1359804334831,14.893617021276595,31.914893617021278,94.28571428571433,9.4,85.9375,0.9367385711756681,-3.9207213232006795,48
625.7142857142857,18.676245060168558,10.478778148324823,10.560595422970529,0.0,2.127659574468085,24.28571428571422,5.875,70.3125,0.9546930570056412,-4.0497947775742285,48
622.3100303951368,31.725801154142182,14.472382903422746,14.628226628527917,0.0,17.02127659574468,40.71428571428578,5.222222222222222,62.5,0.972202065571482,-4.504764838889112,48
599.3452380952381,13.520407480535338,6.2235109528394705,6.290493995894035,0.0,0.0,21.78571428571422,4.363636363636363,0.0,0.9753046018319194,-4.161639916717846,49
575.9142857142858,25.888637939142804,8.777882925553701,8.867086646720233,0.0,4.0,37.85714285714289,6.25,62.5,0.9189420364905984,-5.380415110020905,51
574.2,11.802942615890426,5.495066129729085,5.5387895467515476,0.0,0.0,12.5,2.7777777777777777,0.0,0.9850135925624137,-4.2768249062187955,51
549.9460916442048,14.34045080770497,4.504489300892228,4.4436010783946385,0.0,0.0,11.428571428571445,2.5238095238095237,54.6875,0.9377886655498961,-4.833052808395813,54
617.0212765957447,58.83128976554681,15.127379879057836,14.941867042401592,0.0,12.76595744680851,117.14285714285711,6.714285714285714,39.0625,0.9837904539858319,-5.415424414826986,48
609.4345238095239,33.4559412845751,10.499881106785054,10.545541364672408,0.0,6.25,46.42857142857133,6.0,54.6875,0.9271842866783185,-5.844270765728896,49
586.3714285714285,24.73551894629848,9.889013420069965,9.788652350606709,0.0,4.0,32.14285714285711,5.555555555555555,101.5625,0.9165162788973719,-3.7805614836473627,51
578.2571428571429,45.9499120672944,27.278317804452914,27.5247102895502,6.0,16.0,33.92857142857156,4.166666666666667,31.25,0.9358586588574846,-5.148410283736038,51
619.9696048632218,49.63709413950625,23.080238880843613,23.334748763423924,4.25531914893617,25.53191489361702,37.14285714285711,6.714285714285714,70.3125,0.994571652309218,-4.39346471906128,48
598.9212827988338,38.84660507085566,16.760365865504802,16.93171966160226,2.0408163265306123,16.3265306122449,29.999999999999886,5.444444444444445,31.25,0.9150124032527248,-4.415251308855608,50
573.7535014005603,33.44439281799548,13.752921767495705,13.891469610760732,0.0,9.803921568627452,51.42857142857156,4.25,0.0,0.9648608944824021,-4.654739452403434,52
589.4460641399417,37.29800053746499,15.489463173001017,15.507032240944623,2.0408163265306123,12.244897959183673,54.28571428571422,5.444444444444445,78.125,0.9620315102069965,-3.937615906622581,50
579.2285714285714,44.28826288161708,15.111690243235426,15.124374458559853,2.0,16.0,55.357142857143,7.142857142857143,0.0,0.9347129479634624,-4.680986502120778,51
614.9848024316109,20.401629152777147,12.803545981765643,12.938588747368794,0.0,8.51063829787234,20.714285714285666,4.7,70.3125,0.9009126541566264,-3.461483648393696,48
618.9057750759879,37.03425686496417,16.163813144435753,16.257473122163066,2.127659574468085,12.76595744680851,42.14285714285711,7.833333333333333,39.0625,0.9848705682292213,-4.245692816708829,48
652.6948051948052,65.00499481308609,31.78445441528698,32.14683833383968,9.090909090909092,34.090909090909086,64.642857142857,11.0,0.0,0.9821073027371684,-4.355384231490927,45
594.5772594752187,25.431613635295726,13.671311638052929,13.813890236567683,0.0,16.3265306122449,29.999999999999886,4.9,23.4375,0.9557509537354996,-4.465318659394734,50
612.202380952381,24.03853891789764,14.586499149789445,14.742146779000963,2.083333333333333,6.25,37.85714285714289,6.0,0.0,0.9393713412138034,-3.411903362440293,49
627.329192546584,17.813874425700273,13.770058550044554,13.925324296826965,0.0,19.565217391304348,22.499999999999886,5.111111111111111,0.0,0.8364927816090746,-3.7524153796389332,47
635.9937888198758,54.36553827515327,22.356623047864538,22.35653084096551,2.1739130434782608,32.608695652173914,72.49999999999989,9.2,109.375,0.9721301604537229,-5.318538516167029,47
675.4817275747507,33.11042606409033,26.22045285108993,26.425488275265092,4.651162790697675,48.837209302325576,50.00000000000023,8.6,85.9375,0.90732497312403,-3.594248414733161,44
644.1904761904761,36.80591426218515,17.72287181945288,17.896935427858473,0.0,24.444444444444443,55.714285714285666,9.0,23.4375,0.9280558837037748,-4.9320210461986225,46
639.968944099379,30.30231520223165,14.90864090707617,15.044221217559839,2.1739130434782608,10.869565217391305,26.785714285714334,5.111111111111111,70.3125,0.8888191473657497,-5.221419115091524,47
597.6967930029156,14.300041406541212,8.813544770895033,8.905542743804604,0.0,4.081632653061225,15.71428571428578,3.2666666666666666,0.0,0.8908227527449581,-3.6076124165096553,50
585.7142857142858,15.383477995953267,8.135155684895814,8.200383300164077,0.0,2.0,19.64285714285711,5.0,46.875,0.971331665470164,-4.865427150296271,51
575.6302521008404,22.927412992019033,9.856107606091625,9.918451330794179,0.0,1.9607843137254901,32.142857142857224,4.25,46.875,0.9477142245460728,-4.661075680417055,52
610.8510638297873,21.309523501905613,11.536755044103534,11.664067822259913,0.0,6.382978723404255,28.57142857142844,5.875,78.125,0.9419983064281946,-4.576629969494062,48
631.5555555555555,68.3246521477807,59.403341297677756,60.08881548353171,8.88888888888889,24.444444444444443,51.42857142857133,7.5,31.25,0.9674211737501647,-4.488204259237654,46
606.8154761904763,20.017880811372546,10.941362679383504,11.047311066615421,0.0,6.25,26.071428571428555,5.333333333333333,46.875,0.9576605157010047,-4.541035043195358,49
612.8571428571428,52.893222535969336,36.99084996815375,37.37170040190446,6.382978723404255,19.148936170212767,65.0,6.714285714285714,23.4375,0.9171716313602155,-3.1970268797417183,48
699.21768707483,53.16110209170815,36.78668683806212,37.1893638085919,7.142857142857142,47.61904761904761,68.57142857142867,7.0,54.6875,0.9573062332497242,-3.8500418169967197,43
752.4175824175824,70.78139433276228,46.44158290784279,47.06196529294746,17.94871794871795,46.15384615384615,61.42857142857133,9.75,78.125,0.9876584503040187,-3.5100553810187236,40
730.7142857142857,54.86580365087538,36.50480424000014,36.83755081758601,17.5,45.0,59.28571428571422,8.0,70.3125,0.9422181005097013,-4.072555775400249,41
758.8721804511279,80.7344648945741,38.845728507473474,38.81530698871331,21.052631578947366,65.78947368421053,121.42857142857133,9.5,195.3125,0.972149939469587,-3.6678896285547578,39
813.4285714285714,47.90847616899889,40.19311128138493,40.722493912116335,22.857142857142858,60.0,69.28571428571445,7.0,31.25,0.9923492653026792,-3.549203398150668,36
788.9575289575289,42.021817905927094,32.07311658158958,32.479840998173046,8.108108108108109,59.45945945945946,61.42857142857156,7.4,0.0,0.9869252446031388,-3.679163506807952,38
791.7857142857142,37.96173460816354,29.381376858861614,29.59180361798039,8.333333333333332,44.44444444444444,62.5,7.2,39.0625,0.9749553286836967,-3.075401415545713,37
727.0714285714287,59.78677444672955,25.61744074920414,25.81055389759162,2.5,42.5,78.21428571428578,10.0,148.4375,0.9610206112222749,-5.539977013821768,41
701.9163763066202,191.74057988624108,125.44044851023526,126.66256982000088,34.146341463414636,51.21951219512195,201.42857142857156,13.666666666666666,164.0625,0.9162806514194913,-4.2778457929050235,42
887.4458874458875,96.49386517968912,93.38893053750418,94.86129257413039,39.39393939393939,78.78787878787878,127.14285714285711,8.25,156.25,0.9522424966527689,-2.8677697509978755,34
880.2164502164503,47.9784193782566,48.391209776915765,49.16016199445039,24.242424242424242,72.72727272727273,50.0,6.6,93.75,0.9868886282524862,-2.104445918014877,34
836.530612244898,42.83933203333019,40.319849653867074,40.92610831942408,20.0,62.857142857142854,80.0,7.0,125.0,0.9863929909564866,-2.8179289290806326,36
771.8045112781955,41.5298777482354,33.79393118426633,34.229451190432286,15.789473684210526,44.73684210526316,54.64285714285711,9.5,54.6875,0.9889264083793085,-3.1905751410470455,39
787.4131274131275,43.05883471391661,30.524515258166375,30.906821519789226,10.81081081081081,45.94594594594595,58.57142857142867,6.166666666666667,46.875,0.969112113162023,-3.4159530367021262,38
746.1538461538463,42.36452958471058,29.940865456345325,30.341243430714563,7.6923076923076925,46.15384615384615,62.14285714285711,9.75,109.375,0.9776888003941774,-3.8810897412731813,40
770.0375939849622,86.88104657493113,60.769563752376605,61.419392128908164,13.157894736842104,52.63157894736842,91.42857142857133,7.6,23.4375,0.9898213933100496,-4.230426567494344,39
772.1235521235521,71.30753365664057,43.663057440289435,44.23667828695209,29.72972972972973,56.75675675675676,115.71428571428578,18.5,85.9375,0.9680932299966557,-3.6668119497155667,38
776.4092664092664,60.010034706622015,36.181859876559464,36.57075095035493,8.108108108108109,45.94594594594595,84.28571428571422,7.4,39.0625,0.9789300698003192,-3.9279610149835675,38
739.1353383458646,56.07451062398283,30.770577848233135,31.012860425918667,5.263157894736842,52.63157894736842,85.35714285714289,9.5,62.5,0.991444871605552,-3.4767945605254713,39
817.2244897959183,62.94011221746845,37.03847647374009,37.58035517469472,20.0,57.14285714285714,87.14285714285722,11.666666666666666,132.8125,0.9709994270204625,-4.142758648534251,36
722.7857142857143,74.88903355591376,51.06351920106251,51.60565980632725,15.0,50.0,112.85714285714289,13.333333333333334,195.3125,0.8739086103872767,-4.231241693111904,41
715.0871080139373,125.6550383035642,42.96237081589479,43.303400078963136,17.073170731707318,41.46341463414634,202.8571428571429,10.25,218.75,0.9884487951329731,-5.455013827903013,42
741.9413919413919,72.71731176731285,45.213421578885544,45.820086873930045,25.64102564102564,56.41025641025641,129.28571428571422,9.75,54.6875,0.9761633882648747,-4.054917606720456,40
705.8188153310106,67.60584312681861,34.28794635591527,34.15633019992519,14.634146341463413,43.90243902439025,90.0,6.833333333333333,78.125,0.9849474130813464,-3.7071063572691996,42
769.8496240601504,70.86790729176654,38.96127881054053,38.87230317222143,21.052631578947366,44.73684210526316,97.14285714285722,9.5,117.1875,0.9871332006171608,-3.7333549301741056,39
785.3667953667951,32.283476192628,30.19494483978321,30.524700975022053,13.513513513513514,45.94594594594595,45.714285714285666,7.4,70.3125,0.9930394133232525,-2.3130739860289373,38
732.25,35.11644306477687,23.059997281452937,23.32735215259272,2.5,30.0,40.71428571428578,6.666666666666667,125.0,0.959024229242456,-3.3936094507932184,41
717.6428571428571,62.42823195019223,30.34340348424761,30.431907050043232,7.5,45.0,96.07142857142856,10.0,0.0,0.9882945366805306,-3.9177101619557333,41
709.2682926829267,86.21586692313724,44.747591429880444,45.2156875292648,19.51219512195122,51.21951219512195,127.14285714285711,8.2,195.3125,0.9295930110061641,-4.090875638001256,42
831.6734693877551,65.45939396769369,56.83847504022218,57.44242839839598,40.0,68.57142857142857,90.71428571428578,8.75,54.6875,0.9962829583449336,-2.78166105018382,36
808.2142857142858,69.41099550774426,46.30359946715979,46.890078607192756,25.0,58.333333333333336,109.28571428571422,9.0,85.9375,0.9619754830308217,-3.4425887795049666,37
806.3673469387755,70.66171788321329,48.87817130634185,49.52838806674203,34.285714285714285,62.857142857142854,112.85714285714289,11.666666666666666,78.125,0.9882999964854963,-3.6458310235720996,36
775.0193050193051,72.85062344129092,51.22424135596673,51.794740788109166,29.72972972972973,70.27027027027027,101.42857142857144,12.333333333333334,46.875,0.9929707775320203,-3.3832268101547256,38
793.5907335907335,70.83533140168846,51.16389121413983,51.742600709812564,24.324324324324326,67.56756756756756,88.57142857142856,12.333333333333334,0.0,0.9864410078241633,-3.201370615854766,38
774.0926640926641,61.519093658789245,35.402608254220674,35.453537944324815,16.216216216216218,37.83783783783784,70.0,7.4,54.6875,0.9895004695939426,-3.2599426744456004,38
828.5714285714287,99.85403512794329,67.77017868389856,68.6050019669236,51.42857142857142,80.0,157.1428571428571,17.5,46.875,0.9874171476983059,-4.4990598682343315,36
802.3809523809524,106.00621578122936,55.09334776477127,55.897534696824,25.0,55.55555555555556,185.3571428571429,6.0,109.375,0.9895477479008324,-4.639653701674037,37
778.6842105263158,97.3733250552548,53.54606864356585,54.262085896162674,23.684210526315788,50.0,136.78571428571433,7.6,78.125,0.9900115615082844,-4.394927368718306,39
801.8650793650793,121.88453143146417,63.83287216249258,63.718317692825515,30.555555555555557,77.77777777777779,227.142857142857,12.0,117.1875,0.9906904000971524,-4.720326308187753,37
756.8045112781956,65.83205345464131,41.45252935275194,41.96504672676336,21.052631578947366,47.368421052631575,70.0,7.6,125.0,0.9893270912168476,-3.255826459478476,39
771.7760617760619,86.85119380042185,52.12437158737441,52.823900191929035,27.027027027027028,67.56756756756756,144.28571428571422,12.333333333333334,156.25,0.996445273406398,-4.221671296922536,38
781.6216216216214,81.00639805794503,44.96849489231121,45.59144137937422,13.513513513513514,62.16216216216216,111.42857142857144,9.25,93.75,0.9903036990676547,-4.051706687369365,38
769.5864661654135,103.92140730511417,46.372553078142126,46.955446943577705,28.947368421052634,71.05263157894737,191.07142857142867,12.666666666666666,0.0,0.984550673675523,-5.194411652970569,39
709.8257839721255,85.88803528012932,42.46126686373677,42.954468245215196,19.51219512195122,46.34146341463415,127.14285714285711,10.25,70.3125,0.9417803390132746,-4.101178303652986,42
722.1428571428571,25.636839009331297,21.833775725422473,22.118698613041683,2.5,37.5,39.285714285714334,6.666666666666667,31.25,0.9570137502796636,-3.216356702467268,41
721.6785714285713,27.708370464991653,21.26186681922378,21.50497272580312,5.0,27.500000000000004,34.64285714285711,5.0,23.4375,0.9802821149749913,-3.3934755073382075,41
703.7282229965157,35.895082445275314,21.683013195229364,21.93417558532938,0.0,39.02439024390244,45.71428571428578,6.833333333333333,101.5625,0.95344598858238,-3.440985546041897,42
711.4285714285713,61.606777882870695,36.6578648871531,37.07465078622735,17.5,50.0,69.64285714285722,8.0,132.8125,0.9693960153302764,-4.175644092043658,41
599.4169096209912,91.5865071751462,49.58544127457734,50.10149454249363,12.244897959183673,22.448979591836736,77.14285714285711,5.444444444444445,101.5625,0.6854666581182484,-5.342652657191182,50
600.7871720116618,41.30838603945337,17.6355296138762,17.822128792996104,2.0408163265306123,16.3265306122449,68.57142857142844,7.0,62.5,0.9639447347556952,-4.486928656880415,50
592.6239067055393,39.618017677892574,17.465953275144294,17.611763945334225,2.0408163265306123,20.408163265306122,45.714285714285666,6.125,85.9375,0.9383721643136992,-4.43626080260784,50
483.8095238095238,52.5527302958403,8.958183341060355,8.890152795766218,0.0,3.3333333333333335,57.85714285714283,6.666666666666667,0.0,0.9548748656680295,-6.359918419861352,61
452.12053571428567,12.86090191331742,4.809288065886702,4.845977174977263,0.0,0.0,16.071428571428555,4.266666666666667,0.0,0.9777102422769623,-4.032958416171339,65
498.83777239709445,24.08271369599964,8.764251488404785,8.840761710383797,0.0,1.694915254237288,41.42857142857139,6.555555555555555,78.125,0.9228612684570612,-4.763095430587731,60
535.1688311688313,67.34041122017605,49.3150361362095,49.776694403622805,5.454545454545454,10.909090909090908,45.714285714285666,6.111111111111111,85.9375,0.9140982877111796,-3.401081515352538,56
520.8928571428571,24.331602940820797,8.715243719961611,8.781457573432624,0.0,3.571428571428571,20.35714285714289,3.2941176470588234,39.0625,0.9251414273206308,-5.175517398343864,57
519.7448979591836,32.78886994162451,10.238346921299872,10.325227401662163,0.0,7.142857142857142,47.499999999999886,6.222222222222222,101.5625,0.9725160388756091,-4.664792614866406,57
543.2804232804233,38.204433200644274,12.46481378101183,12.575591171817557,0.0,9.25925925925926,40.0,7.714285714285714,85.9375,0.9603530780808018,-5.583516820446309,55
605.9821428571428,81.2337862509084,61.524276898234504,62.18833067789154,16.666666666666664,37.5,60.71428571428589,8.0,0.0,0.9246629569980783,-4.177635594900891,49
483.7857142857143,37.38681755110741,29.173439776236947,29.39748899826551,5.0,11.666666666666666,50.35714285714295,4.0,39.0625,0.8800297620168811,-3.68452723545125,61
471.8663594470046,43.930043165443465,12.790616332920733,12.893651003474458,0.0,12.903225806451612,52.85714285714289,6.2,15.625,0.958555903559034,-4.873351670205939,63
450.96703296703294,22.184735301029978,6.869780022025475,6.921747814573419,0.0,0.0,24.285714285714278,3.611111111111111,31.25,0.991952459142603,-4.211287259900423,66
489.50000000000006,32.374948999584554,12.997618385999012,13.108824020128083,0.0,13.333333333333334,30.35714285714289,5.0,46.875,0.9868613200378313,-3.7757279305451674,61
538.2010582010583,69.64356427047747,39.828763239762885,40.18779411278737,5.555555555555555,20.37037037037037,72.5,9.0,31.25,0.9847817980057176,-3.3378702122069366,55
554.6900269541778,38.167787628318074,14.026494329343835,14.121960625520938,1.8867924528301887,11.320754716981133,54.285714285714334,8.833333333333334,125.0,0.9945300157584959,-4.780210978107524,54
538.8095238095239,29.20556384610189,12.248234688485212,12.364966260699605,0.0,9.25925925925926,48.928571428571445,7.714285714285714,39.0625,0.9896836550046371,-4.067588733472919,55
524.8051948051948,24.61397147072932,12.204171374648867,12.279080745577694,0.0,12.727272727272727,32.142857142857224,5.5,54.6875,0.9705221886802333,-3.3858288477259184,56
610.5952380952382,63.33120030535918,48.728068538393906,49.2544042444979,6.25,29.166666666666668,58.214285714285666,6.857142857142857,70.3125,0.9336344820456796,-2.9709714411780945,49
576.5546218487394,44.41564025925841,17.496355305594125,17.671631143501436,1.9607843137254901,13.725490196078432,52.85714285714289,7.285714285714286,70.3125,0.9603842065309649,-5.553935909586276,52
543.5185185185185,22.611062413570636,11.284468865738663,11.368739816551308,0.0,9.25925925925926,38.21428571428578,6.0,78.125,0.9652280263815837,-3.3059134384656,55
630.3726708074533,55.514444021544485,33.586116341196025,33.8801773799222,10.869565217391305,34.78260869565217,37.857142857142776,5.75,125.0,0.9076882069413784,-3.195615903895538,47
605.7142857142857,58.31547604181501,34.35909068153589,34.610265132310644,6.25,27.083333333333332,68.92857142857133,8.0,93.75,0.9593631777192618,-3.169018817367191,49
587.4344023323615,62.049724678189975,30.277907798926133,30.298784719495952,12.244897959183673,36.734693877551024,88.57142857142856,12.25,23.4375,0.9875214285047217,-3.7526921470139185,50
599.4345238095239,47.302152886309905,16.50142429937325,16.171549142869022,0.0,22.916666666666664,64.99999999999989,6.857142857142857,70.3125,0.8901040839685108,-5.094322710891999,49
525.4025974025974,29.375833606596714,9.053882543729308,8.928576420084461,0.0,3.6363636363636362,42.85714285714272,5.0,78.125,0.9682921475122112,-4.180864007134041,56
518.8520408163265,69.06769535183498,54.352999995716175,54.85064646077424,5.357142857142857,10.714285714285714,36.78571428571422,5.090909090909091,46.875,0.9651233954591368,-3.215369149827156,57
552.8840970350404,81.53381023130827,62.5021192733316,63.08202997869728,11.320754716981133,37.735849056603776,75.71428571428578,13.25,39.0625,0.9792206581656006,-2.9629127549496825,54
549.5417789757412,42.236135905279454,20.02059379299665,19.93531186039689,3.7735849056603774,26.41509433962264,42.85714285714289,5.3,70.3125,0.9681591020441236,-3.87086712344804,54
533.5584415584416,45.037040879615915,22.31753934371522,22.28636509290012,3.6363636363636362,20.0,50.00000000000006,5.5,62.5,0.9942677032726367,-3.3021174917035827,56
599.0962099125364,113.45032997104967,70.05858821238782,70.79715217722172,10.204081632653061,34.69387755102041,88.57142857142856,9.8,46.875,0.9324847338646979,-4.669231864452918,50
627.0212765957447,83.59641808642093,79.2444355641412,80.11969749843333,17.02127659574468,44.680851063829785,51.42857142857133,6.714285714285714,70.3125,0.9630587943998542,-2.6128437092963446,48
584.2285714285714,35.22162828020409,19.332897686187813,19.494024900023103,6.0,22.0,56.785714285714334,6.25,78.125,0.9648069989289885,-3.3031290738689405,51
578.2857142857142,24.433609014621307,13.833965167414151,13.977295109014735,0.0,10.0,34.642857142857224,4.545454545454546,46.875,0.9563611750241822,-3.6022348576523715,51
600.9523809523808,85.10387172442044,50.37721365955779,50.8272110985559,14.583333333333334,37.5,98.57142857142856,9.6,0.0,0.9516626862804419,-3.8029203007520818,49
675.6810631229235,109.41246412248485,61.780356419022205,62.32690363238021,18.6046511627907,48.837209302325576,117.14285714285711,10.75,54.6875,0.9468284437597311,-4.818609925989371,44
614.8632218844984,107.17252573678138,48.08811418449223,48.24034645733353,8.51063829787234,31.914893617021278,170.71428571428567,15.666666666666666,0.0,0.9205854985503727,-4.901007390194544,48
639.4720496894411,97.21069465891202,53.361812124376726,53.829383761789295,10.869565217391305,34.78260869565217,90.71428571428567,7.666666666666667,70.3125,0.9217295869382742,-4.140989244477605,47
786.3320463320464,34.30479056035884,32.525064467178325,32.66013599661119,8.108108108108109,43.24324324324324,37.14285714285711,6.166666666666667,148.4375,0.9311736102550899,-2.971223593654257,38
758.8721804511277,24.157412383247028,18.896764271822907,19.086751950459924,0.0,18.421052631578945,37.857142857142776,5.428571428571429,78.125,0.9460040707247935,-3.096150893813844,39
704.8780487804879,52.073315280101255,22.381205672325578,22.636758055869173,0.0,34.146341463414636,74.28571428571433,8.2,125.0,0.9802462008074623,-4.921355710803497,42
681.7346938775511,44.06942316580534,40.9250915207052,41.43349724410854,14.285714285714285,59.523809523809526,61.428571428571445,10.5,31.25,0.9533530507341125,-3.2560471852204134,43
740.0366300366301,75.52856153018702,60.82983255331233,61.64580003726724,17.94871794871795,51.28205128205128,85.71428571428555,7.8,117.1875,0.8758900061206137,-3.327114343587896,40
648.6984126984127,84.22396055053684,36.50297977518454,36.91184578823342,15.555555555555555,46.666666666666664,97.142857142857,11.25,62.5,0.9180239006123454,-5.264081997654621,46
704.2857142857143,60.90408946441363,52.490962506398986,53.135133941063835,14.285714285714285,42.857142857142854,52.142857142857224,7.0,46.875,0.9796632994677854,-2.9265439870050587,43
647.3015873015873,37.69103748013035,21.385237569403202,21.610024057150294,4.444444444444445,31.11111111111111,48.571428571428555,7.5,101.5625,0.9761617915482743,-2.7843067485254016,46
620.3647416413376,72.81357123929516,28.400888547280815,28.670033437588323,10.638297872340425,34.04255319148936,130.0,9.4,164.0625,0.9729861709767761,-5.097526818174047,48
637.6507936507937,43.96422431927892,20.771305310554435,21.011033288937387,2.2222222222222223,28.888888888888886,71.42857142857133,7.5,31.25,0.9840651969248005,-4.620728559230065,46
633.0158730158729,35.363500966069516,15.070951552739103,15.234960634755959,0.0,17.77777777777778,45.714285714285666,7.5,85.9375,0.992148153657524,-4.669871250358561,46
636.2422360248447,40.34585030450898,20.476190476190467,20.705551226108277,4.3478260869565215,17.391304347826086,49.642857142857,9.2,117.1875,0.9801834691534645,-4.309953315618634,47
674.485049833887,112.79106883299188,68.57851437312475,69.24226639212954,9.30232558139535,44.18604651162791,152.85714285714278,10.75,125.0,0.8842047218255242,-3.9698169950774673,44
670.7142857142856,45.91990716186339,17.155311090844013,17.273470150358452,0.0,18.181818181818183,61.428571428571445,8.8,109.375,0.9912694606979588,-4.669674406559783,45
662.4675324675325,27.650204430806063,15.401600641672992,15.58387444947961,0.0,13.636363636363635,38.928571428571445,5.5,31.25,0.958605262429771,-4.626496876443854,45
674.9169435215946,43.58598209669561,30.306981366238507,30.672014544823796,4.651162790697675,25.581395348837212,40.000000000000114,8.6,117.1875,0.9430420281604821,-3.4902789363116447,44
666.7857142857143,31.148137258508637,18.151396216894344,18.360182469522076,0.0,27.27272727272727,45.0,6.285714285714286,15.625,0.9765119790436387,-4.145057305231409,45
651.8412698412698,40.95522490880066,22.910854100655463,22.94651340522343,4.444444444444445,20.0,48.571428571428555,6.428571428571429,117.1875,0.9788023741762913,-4.158733945606227,46
645.6190476190477,21.505058299561345,14.371495700961182,14.359932547513043,0.0,11.11111111111111,25.714285714285666,4.5,70.3125,0.9714821185538096,-2.9277217202883006,46
626.3829787234042,25.745066228744278,13.048948867566242,13.18775898644985,0.0,10.638297872340425,33.57142857142844,5.222222222222222,54.6875,0.9397267442862124,-4.257584837544617,48
638.9440993788821,26.7573878286207,15.362586705850827,15.363257616830918,0.0,13.043478260869565,42.857142857142776,3.8333333333333335,0.0,0.9435123934259353,-4.3906375494751915,47
615.4711246200608,22.707818034888426,10.979128379896714,10.993307277160575,0.0,4.25531914893617,32.14285714285711,4.7,23.4375,0.9679718792971831,-3.129955291173606,48
621.6149068322982,40.45950210102979,16.424084963656995,16.601728779694632,0.0,21.73913043478261,70.35714285714278,9.2,117.1875,0.9841264998108691,-4.73087092714055,47
636.6149068322982,28.804381588546732,15.826439602013778,16.005242905170615,2.1739130434782608,15.217391304347828,28.214285714285666,4.6,54.6875,0.9808159441780978,-4.4292601993095,47
599.3586005830904,79.32005971272818,50.002976101904366,50.52817535355171,8.16326530612245,26.53061224489796,80.0,9.8,70.3125,0.9206737680799869,-4.143086457800355,50
663.6363636363636,76.14866591660326,60.349401890122266,61.05736563620963,27.27272727272727,54.54545454545454,117.14285714285722,7.333333333333333,23.4375,0.9554850209410404,-3.3963428290097255,45
638.2298136645961,128.99161841765272,117.56659713500584,118.73350768092922,17.391304347826086,36.95652173913043,71.42857142857133,9.2,23.4375,0.9635046565892684,-3.9119797889849854,47
625.9006211180125,62.47547088410517,25.14267676702975,24.984967651256277,8.695652173913043,23.91304347826087,52.857142857142776,5.111111111111111,70.3125,0.9850600043712676,-3.3051715145054557,47
589.2128279883383,29.76532536222645,12.016145600900515,11.890214008735997,0.0,8.16326530612245,32.857142857142776,4.9,70.3125,0.8968066380410596,-3.794872176711627,50
579.0857142857144,57.193680022961715,45.35390016185721,45.80875049099874,10.0,26.0,56.07142857142867,7.142857142857143,140.625,0.6574782432487454,-3.221953502187167,51
783.011583011583,50.091507854716845,47.824556543859124,48.46760946731862,16.216216216216218,51.35135135135135,75.71428571428578,9.25,93.75,0.9197065949828088,-2.9823736724288907,38
812.8968253968255,40.0662514187874,35.57523953030373,36.03276962782579,19.444444444444446,61.111111111111114,32.500000000000114,7.2,93.75,0.980043056842696,-2.1198271531738113,37
798.3783783783783,66.21972817324242,40.52587986429795,40.72924099757346,21.62162162162162,62.16216216216216,72.85714285714289,7.4,101.5625,0.9941441990342967,-2.776650345825404,38
768.3458646616541,50.496188074105014,38.74976647083697,39.19131828372925,23.684210526315788,57.89473684210527,66.42857142857133,12.666666666666666,54.6875,0.9974248726567422,-2.768124717760716,39
792.0463320463322,39.29587248255974,29.4497920100144,29.847767300553482,8.108108108108109,45.94594594594595,48.57142857142867,7.4,70.3125,0.9952251712092139,-3.2435102902211987,38
771.1278195488721,37.458059495271954,29.003489909262857,29.392065006087215,2.631578947368421,39.473684210526315,49.28571428571422,7.6,54.6875,0.9884925479517109,-3.395881076883012,39
756.6917293233082,59.427406863364865,41.888671299436226,42.44799694555196,18.421052631578945,63.1578947368421,82.49999999999989,9.5,117.1875,0.9965187223774211,-3.3005898416236485,39
766.5637065637068,71.40829828129765,41.03466263313207,41.205573105346694,18.91891891891892,72.97297297297297,108.57142857142856,9.25,39.0625,0.9980902391680586,-4.105670208858267,38
768.4962406015037,58.09624303578247,30.200652747335464,30.610827120852804,7.894736842105263,52.63157894736842,104.64285714285711,7.6,23.4375,0.9767102726704947,-4.556441974620139,39
752.4436090225563,49.18969202949567,24.81147893693681,25.140287884016328,5.263157894736842,36.84210526315789,61.78571428571422,9.5,78.125,0.9973560983227554,-3.2189155403038514,39
817.0204081632653,91.64651769222122,58.73567869686016,59.53762508373301,37.142857142857146,80.0,164.28571428571433,11.666666666666666,70.3125,0.9960719044997035,-4.300501825236796,36
795.9920634920636,59.56873134836903,35.57523953030372,36.054656578848366,13.88888888888889,66.66666666666666,104.28571428571433,9.0,85.9375,0.995586622727129,-4.494877473949813,37
738.0,66.32760454792115,36.431623803743626,36.89884403132434,15.0,67.5,105.35714285714278,10.0,203.125,0.9980608569545075,-3.9562843089612394,41
686.9047619047619,84.53834263502578,19.284101106876836,19.112397108824293,2.380952380952381,33.33333333333333,173.21428571428567,7.0,0.0,0.9788006821325458,-5.76115946504633,43
706.2020905923343,105.80816765476537,59.78106314046347,60.19934614942606,31.70731707317073,53.65853658536586,162.8571428571429,13.666666666666666,93.75,0.9291517840996169,-4.18286322861207,42
747.9323308270677,37.30835917686617,28.036498156909165,28.41996532585851,5.263157894736842,50.0,65.0,6.333333333333333,101.5625,0.9956210862804705,-2.740546909424415,39
