HRV_MeanNN,HRV_SDNN,HRV_RMSSD,HRV_SDSD,HRV_pNN50,HRV_pNN20,HRV_IQRNN,HRV_HTI,HRV_TINN,HRV_HFn,HRV_LnHF,ECG_R_Peaks_Count,Label
-0.7609994492275101,0.9577407466796202,0.7008346835649799,0.6967344584025772,-0.4870091835404612,-0.43979485936685603,-0.33413641998889043,0.3102453199959038,2.6217169108125042,-0.28654066925582317,0.8653438446275268,0.6609433154328622,4
-0.6528803169168595,-0.9524123624723407,-0.5975681978455731,-0.5967320870812507,-1.1007948505448837,-0.12272806240874919,-1.1723980445757565,-1.326561397385056,-0.0905555984409287,-0.034246403693161,1.4487370700270623,0.5021671826054348,4
-0.5108879698847699,-0.6555903770880718,-0.5690668946893044,-0.5693688035265262,-0.44006640394782853,-0.4431519332828237,-0.5560292029677688,-0.5798528783815107,-0.0905555984409287,-0.1734329936778426,-0.16050223916536602,0.3433910497780074,4
-0.9099187443317757,-0.9700160306709056,-0.7733890121547959,-0.7721498253620045,-0.8716046706315302,-0.8621147579955921,-0.679302971289366,-0.3525937639021709,-0.2549357505168943,-1.1278743192090848,-0.5709799074642564,0.8197194482602896,4
-0.22267402386054982,-0.14547070710657437,-0.25635056667021533,-0.255163918373287,-0.14583576757257738,-0.24312627912308213,0.5102888930140522,0.02617142689672893,0.9779153900528479,-1.115239380651356,0.7162020519956076,0.18461491695057997,4
-0.48147146143210073,0.3464700919850409,-0.5965060603846887,-0.594979830558214,-0.5708355756701623,0.08055159760813636,0.8739465095627671,0.12086272459645389,-0.5836960546688256,-0.7225127530196133,-1.993905388087699,0.3433910497780074,4
-0.5945146924000433,-0.9057631734601792,-0.5264363373826633,-0.5247919347414387,-0.33682758416703873,-0.12272806240874919,-0.9813237036772802,-0.5040998402217309,-0.5015059786308428,-3.6570427220393764,-0.1304703173725676,0.5021671826054348,4
-0.4431744975974912,-0.3430687105317802,-0.33247790830369134,-0.33161888529477235,-0.3092972322254947,0.6042551284990968,-0.48206494197480737,0.12086272459645389,-0.1727456744789115,-0.5896135780905667,-0.2374069531276599,0.3433910497780074,4
-0.16324985759397248,-0.6435048242609837,-0.3923949789569781,-0.3904377078625218,-0.11127534361738928,0.24514413588815195,-1.1477432909114347,-1.1732516772997874,-0.008365522402945877,-0.0063318171164424,0.5909003394577289,0.025838784123152547,4
-0.44885583059791667,-0.23461277922297394,-0.3168863389128083,-0.3160830242008296,0.25736917857128505,0.5642499976671482,-0.531374449303447,-0.6556059165412907,0.07382455363503694,-0.1771899148004533,0.14769923986900826,0.18461491695057997,4
-0.3159419315567908,-0.5649685542577431,-0.043183910785999,-0.04509275075885502,-0.14583576757257738,0.29512457207040466,-0.6053387102964045,-0.6556059165412907,0.6491550859009166,-2.525757756861288,0.6231252705133932,0.18461491695057997,0
-0.4659692081568583,-0.25370294185476555,-0.2826711435228413,-0.28228831856810277,0.25736917857128505,0.5642499976671482,-0.11840732542609445,-0.6556059165412907,0.6491550859009166,-0.17377797564406763,-0.3393316904479571,0.18461491695057997,0
-0.3102293231430679,-0.25277024412035326,-0.36820811889624305,-0.3661991882027425,-0.24951703943814205,-0.44689267278918804,0.07266701547237976,-0.06851987080299603,0.7313451619388995,-2.226731002884768,0.2858695818626677,0.025838784123152547,0
0.018356154582368164,-0.3843431538306452,-0.22639876921105995,-0.2252827999517233,0.06762567450358531,1.1895708394948754,0.08499439230454064,0.9099568720941621,-0.33712582655487716,-2.741820471088081,-0.6837110436270788,-0.13293734870427487,0
-0.6231570822092225,0.34523880446164024,-0.5013496263780187,-0.4999749468017829,-0.5914833396263204,0.0047524023476028235,0.7445090528250895,-0.5040998402217309,-1.0768365108967226,0.3989685366805855,-1.2139341990703723,0.5021671826054348,0
-0.9301980967391231,0.19823719288078617,-0.012064718773928304,-0.014225788314976463,-0.02487428372941841,0.34894965718975346,0.12197652280101964,1.6674872536919618,-0.6658861307068085,0.16472900562343845,0.1551342567263748,0.8197194482602896,0
-0.12116820598642764,0.20387106835342575,0.18490482555494248,0.18586741731540327,0.35224093060513545,0.19222367404812057,-0.08758888334569614,-0.163211168502721,0.5669650098629339,0.34974095153412915,0.506188306146794,-0.13293734870427487,0
-0.22045743400529838,0.1596232385108012,-0.043754967019311926,-0.0430241379734434,-0.11127534361738928,-0.17007794931825182,0.8492917558984453,1.0362119356937949,-0.008365522402945877,-0.5914422321447627,-0.2859326798339908,0.025838784123152547,0
0.00748412648609814,-0.3926982609203276,-0.36399412217850136,-0.3659131082688138,-0.216989581597965,0.47718000703290814,-0.3218090431567315,-0.163211168502721,0.40258485778696823,-2.6216051769368742,-0.4584569615576108,-0.13293734870427487,0
-0.2201640618185729,-0.5143115518461674,0.24934534210067763,0.2490293422984111,0.1652080480241166,0.5219588593590885,-0.4081006809818499,1.0362119356937949,-0.008365522402945877,-0.5058184900000564,1.5387684839472644,0.025838784123152547,0
-0.4753815658142774,0.19865030636611122,0.24121061561675478,0.24099579461863735,0.7949757734297688,0.9679381360622639,0.4116698783567729,1.1624669992934284,0.7313451619388995,0.17141423996470662,0.8102131326454227,0.18461491695057997,0
-0.11935620130371555,-1.0687255242875056,-0.36275475516037264,-0.3601956721259021,0.49454855865591035,0.762136340017695,-0.8765410006039206,-0.163211168502721,-0.33712582655487716,0.1997848767532597,1.5231146587492115,-0.13293734870427487,0
-0.23013871616721424,-0.5599152325732806,-0.26843235307567886,-0.2667402515582559,-0.387758735258895,0.24514413588815195,-0.6053387102964045,1.0362119356937949,-0.41931590259285995,-0.7997181271704428,-0.2161711839767446,0.025838784123152547,0
-0.09548088246055754,-0.7302974711560097,-0.31074154180001956,-0.3092221784314368,0.02696635220336366,0.6603662210945568,-0.6669755944572051,-0.06851987080299603,0.6491550859009166,-1.9612374759596929,0.21990620410481027,0.025838784123152547,0
-0.23747302083533267,-0.07863087636882352,-0.0033053156887026237,-0.003098071981002723,0.5799331354863754,0.10673677415268436,-0.40810068098184793,1.0362119356937949,0.3203947817489854,-1.4220977766700011,0.4845502837785217,0.025838784123152547,0
-0.029963970289942514,0.3014705392594826,-0.15437541703553728,-0.1522856372517005,0.2099333025543602,0.6196581735253016,0.7630001180733269,-0.163211168502721,0.07382455363503694,0.05527158962033981,-0.6210956772694605,-0.13293734870427487,0
-0.12657833425338103,-0.6909438779688047,-0.09550802101731881,-0.09406323726607518,0.7181748313071279,0.798773582830025,-0.9258505079325603,-0.06851987080299603,0.23820470571100258,-3.0077292630726795,0.7444828016713575,0.025838784123152547,0
-0.2811447305202736,-0.9279249749978193,-0.5980646120651113,-0.5964839932382856,-0.8178440111456818,0.16056185927203356,-0.7532672322823215,-1.1101241454999706,-0.008365522402945877,-2.216959633884625,-0.07492284150183696,0.18461491695057997,0
0.18887677707209402,-0.8075595128378664,0.13309166931232672,0.13532210504354272,0.25736917857128505,0.8700743449361746,-0.7779219859466433,-0.8828650310206309,-0.0905555984409287,-3.56382130536281,1.4322577265002794,-0.2917134815317023,0
-0.12745845081355506,-0.9305551048296861,-0.3382256938236111,-0.3365286517299127,-0.24951703943814205,0.24514413588815195,-0.5806839566320867,-0.06851987080299603,-0.6658861307068085,-0.6069316998889935,0.5942907759538906,0.025838784123152547,0
-0.23424592678135964,-0.7275416854634538,-0.2891913056117918,-0.28761064095408206,-0.24951703943814205,0.5219588593590885,-0.48206494197480937,-0.06851987080299603,-0.6658861307068085,-0.9193002952098451,0.3785884049580075,0.025838784123152547,0
-0.4092098392530317,0.9218398615267479,1.1142487194245698,1.1109782728023394,0.7949757734297688,1.1025008488606354,-0.03827937601705674,1.1624669992934284,3.8545680513822465,-0.62715795136471,1.4966850359208823,0.18461491695057997,0
0.055392432112337665,-0.6974900808948886,-0.17544359346778268,-0.17389879553646712,-0.03587078226061498,0.42968728486877605,-0.7779219859466433,-0.8828650310206309,0.07382455363503694,-2.2078096435772694,0.3711903762289086,-0.2917134815317023,0
-0.05264854319874633,-0.8129589302725827,-0.011579348766422429,-0.010392809251923204,0.7181748313071279,0.5219588593590885,-0.7779219859466453,-0.06851987080299603,-0.1727456744789115,-4.708415456174202,0.8423303514693053,0.025838784123152547,0
-0.3555879229016781,-0.707604307740297,-0.3947955637154587,-0.3946261918629685,-0.011434118857956458,0.8333754232638917,-0.49439231880696827,0.02617142689672893,-0.33712582655487716,-1.2733088339999714,0.7966949198008487,0.18461491695057997,0
-0.14066019921616776,-0.3742077370467773,-0.04612056922095293,-0.047452191143811814,0.7181748313071279,1.0755883063009608,-0.4943923188069663,-0.7313589547010707,0.5669650098629339,-1.3127867232459984,0.3321773613081078,0.025838784123152547,0
-0.04385600619073104,-0.7741091051189418,-0.2159255235888625,-0.21426116473510462,0.2099333025543602,0.6196581735253016,-0.6916303481215269,-1.2363792090996037,0.15601462967301977,-1.3990955775694633,0.9701531687956756,-0.13293734870427487,0
0.1849095850016114,-0.9207812629374061,-0.497556499114323,-0.49390704716607914,-0.29703762237652587,0.07646016377305072,-0.6854666597054444,-0.3525937639021709,-0.008365522402945877,-0.8933593439976785,0.7294495853776635,-0.45048961435912976,0
-0.07133807721185771,-0.27348722331670544,0.15902687101583315,0.16016677848971503,0.6368561867066852,1.0470926730024819,-0.5683565797999277,0.9099568720941621,0.484774933824951,-0.7353130418857332,0.6107125657239046,-0.13293734870427487,0
0.007786127266549336,-0.24077643676117388,-0.11307663440729128,-0.11227657052140988,0.06762567450358531,0.9046145065100885,-0.2786632242441723,-0.163211168502721,0.40258485778696823,0.4672277579921261,0.1395489303269327,-0.13293734870427487,0
0.03423407440309886,-0.21709994654644357,0.050195645797602786,0.052581063885901135,0.8438491002350855,1.457257091692706,0.20826816062613804,0.7837018084945286,-0.41931590259285995,-0.36289213953655597,0.2987030803726404,-0.2917134815317023,0
0.03375819438541675,-0.5635517810998246,-0.228230198564491,-0.23408299599115656,0.2099333025543602,1.0470926730024819,-0.6977940365376053,-0.8071119928608508,0.23820470571100258,0.05261355683136676,1.017078436734235,-0.13293734870427487,0
-0.0690773856553321,-0.8207630124325707,-0.33846564785649574,-0.3404458405186181,0.02696635220336366,1.0755883063009608,-0.8888683774360795,-0.7313589547010707,-0.5015059786308428,-0.2205001668474784,0.8074809844915131,0.025838784123152547,0
0.16491804848957253,-0.5200246195946392,0.27890947080042094,0.28088050622520794,0.5506091394031852,0.7232786582470424,-0.3341364199888944,-0.25790246620244595,-0.7480762067447913,-0.7866712210701745,1.3420629912974953,-0.2917134815317023,0
-0.1597293913532764,0.43822542093063427,0.5103856501071544,0.5101277895443754,0.44169143966562263,0.798773582830025,0.28223242161909506,1.0362119356937949,0.40258485778696823,-0.3674309174568376,0.8186539250832887,0.025838784123152547,0
-0.04234600228847179,-0.16770358131214144,0.019370090783986715,0.018564529524361526,1.2060866989097858,0.6196581735253016,-0.3649548620692927,-0.163211168502721,0.3203947817489854,-1.2069582513442427,0.7200865507643169,-0.13293734870427487,0
0.053836670516069426,-0.5504117145120038,0.30998979128158366,0.31013600835850225,0.25736917857128505,0.42968728486877605,-1.1230885372471169,-1.2995067408994205,-0.33712582655487716,-3.4003294818344587,1.1359010828975102,-0.2917134815317023,0
-0.14170425905715964,-0.48043350085679204,-0.08255924234918463,-0.08067180807891122,0.7791638147574604,0.47718000703290814,-0.23551740533161114,-0.163211168502721,-0.9946464348587397,-0.5906453011672447,0.13811974906134794,-0.13293734870427487,0
-0.3119488101263708,-0.4058921313273056,-0.2097459421494647,-0.21176628712607817,0.391770827285906,0.5642499976671482,-0.03211568760097605,1.1624669992934284,-0.6658861307068085,-0.25249248462453394,0.11349171938683376,0.18461491695057997,4
-0.49173948796746675,-0.5459813150182421,-0.21313594077865555,-0.21512585422845446,0.08301028294150684,0.8661068939445768,-0.33413641998889043,0.12086272459645389,0.3203947817489854,0.05974055879963598,0.8930573704968913,0.3433910497780074,4
-0.07375408345547217,-0.8183602606432431,0.008923701115930778,0.008661417233722137,0.49454855865591035,0.762136340017695,-0.9073594426843229,-0.8071119928608508,0.07382455363503694,-0.7216024024618329,1.402388523575799,-0.13293734870427487,4
-0.7601541730889713,-0.4851969507413487,-0.19328457967190896,-0.19362310540690858,0.2998118044811655,0.2597133318603068,-0.6608119060411266,-0.5040998402217309,0.5669650098629339,0.5726697570278597,0.9445764067829958,0.5021671826054348,4
-0.3906703468975101,4.467281838373138,6.5534332928009675,6.532617493213704,0.7949757734297688,0.29512457207040466,1.465660597506437,0.02617142689672893,-0.5836960546688256,0.5833778048878517,1.6709983654976235,0.18461491695057997,4
-0.1802654444240084,2.1506237080310155,2.507553740924902,2.482169473256239,0.8564165271278816,0.9371809445654933,0.24525029112261826,1.0362119356937949,4.018948203458212,-0.8778204005341483,1.0098501281956018,0.025838784123152547,4
-0.11631030771801422,-0.10711893311392028,-0.13475856772845254,-0.13498919042757163,0.5799331354863754,0.38355149762362023,-0.21086265166729354,-0.06851987080299603,0.5669650098629339,0.49715082882983214,0.3914354887166605,0.025838784123152547,4
0.3017083868413983,-0.7578689176894805,-0.18391365356622177,-0.18144852565424605,0.005366087231371115,0.37922626756938715,-0.2786632242441723,-0.9586180691804105,-0.830266282782774,0.6156077377729372,1.0297388292904606,-0.45048961435912976,4
-0.12026220364507241,-0.39320317724235815,-0.24261442193860455,-0.24355828248056613,0.2099333025543602,-0.09273265893666666,-0.06293412968137632,0.9099568720941621,-0.6658861307068085,0.635449984731132,0.731260901876513,-0.13293734870427487,4
0.05725934602785809,0.12886865929214328,-0.31584072710915817,-0.31289150106871677,-0.32911074309251503,0.13609591149051106,-0.013624622352738636,0.7837018084945286,0.23820470571100258,0.48774807487951893,-0.1423033191972391,-0.2917134815317023,4
0.10110436842619937,-0.9174262931158325,-0.422122886090286,-0.41928944394221196,0.06762567450358531,0.334701840540514,-0.9566689500129605,-0.163211168502721,-0.33712582655487716,-0.36648808131864374,0.8814379988054444,-0.13293734870427487,4
-0.08855212169761838,-0.7527791372766888,-0.26242596069145624,-0.26029138406937213,0.06762567450358531,0.049745507555727125,-0.5560292029677668,-0.163211168502721,-0.5015059786308428,-0.014306884106667542,1.2778822038995703,-0.13293734870427487,4
-0.021205947656835762,-0.7917567440465231,-0.18949208057805983,-0.1874500110560022,0.06762567450358531,0.19222367404812057,-0.7655946091144842,-0.8071119928608508,-0.5015059786308428,-2.14975999914883,-0.06801192372324429,-0.13293734870427487,4
-0.0006698945861037661,-1.003648493814299,-0.5220466793057658,-0.5243745385974373,-0.35929720964874007,0.6196581735253016,-0.9874873920933608,-0.163211168502721,-0.1727456744789115,-2.5565669894330414,0.2586830807627717,-0.13293734870427487,4
-0.02573595936361433,-0.9924557522073635,-0.25852394411005347,-0.2635342746035701,-0.07468195354718976,0.762136340017695,-1.1107611604149559,-0.163211168502721,0.07382455363503694,-2.243023559647676,1.2190188220934535,-0.13293734870427487,4
-0.03056797185084654,0.5124728790391891,1.3692553199164672,1.3677768133999013,-0.35929720964874007,0.19222367404812057,-0.5560292029677688,-0.8071119928608508,3.032667291002418,-0.0400542086424685,-0.7316010547324054,-0.13293734870427487,4
-0.7931199424919879,1.5256325898555625,2.0282772744588504,2.0153447138280387,0.00924305786736976,0.3054755499779718,1.1944583071989203,1.5412321900923283,2.1285764545846075,-1.8727447305955,1.0249056575443456,0.6609433154328622,4
-0.16735706820811955,0.6028655673268083,-0.30467346208531665,-0.32280376793563215,0.1652080480241166,-0.031670587582783905,1.1574761767024402,1.0362119356937949,-0.6658861307068085,0.44503761690381927,-0.3934898923085698,0.025838784123152547,4
0.0401002107749074,-0.18846390023689036,-0.24295320861865105,-0.24064954892596815,0.2099333025543602,0.6196581735253016,0.14663127646533922,3.0562929532879277,-0.7480762067447913,-0.8538241573973531,-0.17960370386031665,-0.13293734870427487,4
0.5702090000746542,-1.0171835045284487,-0.45795008742946974,-0.4545049703335495,0.04926339991638855,0.16924332461386343,-0.7039577249536858,-0.44728506160189585,-0.1727456744789115,-1.7990890806862245,0.7775317515455982,-0.6092657471865571,4
-0.23893988176895603,-0.05358978293887355,-0.05230796253107047,-0.05094016849413521,0.30344974384486956,0.38355149762362023,-0.013624622352736919,-0.7313589547010707,-0.5015059786308428,-5.2447017736630075,-0.8800519384502555,0.025838784123152547,4
-0.668822779169139,0.44298717434883533,0.9638143171322194,0.9586515386890577,0.2998118044811655,0.5146742613730112,0.9294197053074852,-0.5040998402217309,1.388865770242762,-2.3952510027968925,-0.3459608718147237,0.5021671826054348,4
-0.49173948796746514,0.1886469968339348,-0.43444219737517076,-0.43313062724634016,-0.44006640394782853,0.7351810112218364,-0.4327554346461697,-0.5798528783815107,0.40258485778696823,-0.1855531176793446,-1.2165528470499956,0.3433910497780074,4
-0.523931138726992,-0.15685220577574363,-0.38095024864193955,-0.3794703614010826,-0.3092972322254947,-0.18130016783734368,-0.8518862469396008,0.12086272459645389,1.3066756942047792,-0.8557084635290363,-0.7000311371895386,0.3433910497780074,4
-0.8004918589789187,-0.3661614051258976,-0.4952511968049734,-0.4972604515144628,-0.23888306283654553,0.18126381508716724,-0.383445927317532,0.3102453199959038,-0.0905555984409287,-0.4372728005197484,-0.09515557126543056,0.6609433154328622,4
-0.2651722447985921,-1.0886666611522233,-0.6626017180188931,-0.6605896891390399,-0.5490407137164401,-0.3776889919214539,-0.9751600152611979,-0.6556059165412907,-0.41931590259285995,-0.3576101782332344,0.3232092630334267,0.18461491695057997,4
-0.13655298860202236,-0.7685468730572077,-0.619141702263751,-0.6162498318623124,-0.9407255185419066,-0.44689267278918804,-0.8888683774360814,-0.06851987080299603,-0.008365522402945877,0.34341002991978975,-0.06452291664796594,0.025838784123152547,4
-0.60370187403695,-1.0659901518190833,-0.6548592389177326,-0.6527446146094856,-0.8461390950856021,0.38719379661665954,-0.9689963268451214,-0.9838690819003374,-0.0905555984409287,-0.8185799450190593,0.06086462813536979,0.5021671826054348,4
-0.5918125801538928,-0.10514702953759747,-0.48452856139160116,-0.4842489855841616,-0.33682758416703873,-0.2502085271651019,-0.1553894559225771,1.4149771264926947,0.5669650098629339,0.2727854244381459,-0.2683763204736571,0.5021671826054348,2
-0.7270359768413005,-0.9373519693951402,-0.6944360884716992,-0.6934509805185358,-0.9832614249482922,-0.31558312447605175,-0.8025767396109651,-0.42834680206195097,-0.0905555984409287,0.3097832971772062,0.8186916803479731,0.6609433154328622,2
-1.4902048550596059,-0.6162232564559021,-0.1791061689305554,-0.18137763108005994,-0.4952800542305917,-0.0009133960860133338,-0.8272314932752829,-0.5419763593016208,0.23820470571100258,-4.0709764818700265,0.327003793757868,1.6136001123974268,2
-0.837351441413566,-0.3495606609746593,-0.4840281654580784,-0.48284811355686436,-0.23888306283654553,0.05705208019636267,-0.13689839067433554,0.3102453199959038,-1.2412166629726882,-0.06341059260423695,-0.0011319973624828125,0.6609433154328622,2
-1.0423074157283072,-0.7774507678199433,-0.03373276859894882,-0.03588557906810224,-0.2933497722593563,-0.08230742724210112,-0.8765410006039186,-0.7944864865008875,0.07382455363503694,-0.9056408447080351,1.1194298072622324,0.9784955810877172,2
-0.8028614035640022,-0.9178609498976881,-0.684272561036981,-0.6861198346494665,-0.7351353042443768,-0.6882183291484655,-0.7286124786180036,-0.42834680206195097,0.3203947817489854,-0.24445816050816516,0.18273742141302096,0.6609433154328622,2
-0.7628562853351208,-0.30783813414718797,-0.32921035306203106,-0.3288826921947485,-0.2094997064373979,-0.12272806240874919,-0.13073470225825728,1.4149771264926947,-0.2549357505168943,0.31470327379737956,0.2527642019734315,0.5021671826054348,2
-0.576936356787934,-0.13063574932527497,-0.36029706409136797,-0.3669341125246294,-0.44006640394782853,-0.7050036987283042,0.6520537265838906,-0.5798528783815107,1.0601054660908307,0.12290898330147321,-0.5379624172214611,0.3433910497780074,2
-0.8062840790757908,-0.14097689160564789,-0.5246054867927491,-0.5232133233686188,-0.7351353042443768,-0.6882183291484655,0.09732176913670154,0.3102453199959038,-0.1727456744789115,0.179951778962192,-0.8545849135381568,0.6609433154328622,2
-0.3396154371799966,-0.1671619507004814,-0.7238717209260855,-0.720976169167373,-0.8178440111456818,-0.6468144175181975,-0.11840732542609445,1.1624669992934284,-0.41931590259285995,-0.013684228261233214,-1.6048503389438342,0.18461491695057997,2
-0.6844950301968027,0.3238816170438259,0.6900490627489333,0.6868241785458038,-0.7188112173559612,-0.8876108509468623,0.8061459369858861,0.21555402229617884,0.8135352379768823,-1.41315713658895,-0.6465782259716201,0.5021671826054348,2
-1.1522563944075241,-0.39769795300241795,0.298150897600102,0.29372487007101106,-0.6642421269004009,-0.7237073962601246,-0.5128833840552096,-0.20108768758261084,1.0601054660908307,-4.811828448847938,0.570545437037423,1.1372717139151445,2
-0.7382670638951656,0.38241226904682196,1.2351619779417626,1.2287791424811856,-0.4641554618966796,-0.12272806240874919,-0.11840732542609617,0.21555402229617884,0.7313451619388995,-0.5051072217615298,0.4411290913079397,0.5021671826054348,2
0.05881510762412552,-0.11582032674404756,-0.35222842440252844,-0.35739080679971064,-0.18249076267656508,0.5764829715579096,0.06033963864022083,-0.8828650310206309,-0.008365522402945877,-0.991982172822136,-0.051140501292871635,-0.2917134815317023,2
-0.3998822776105448,-0.6835663854941565,-0.7529965666521621,-0.7513997143493077,-0.9631430908371639,-0.8359295814510441,-0.531374449303447,0.12086272459645389,0.15601462967301977,-0.9417207862273276,-0.7044636250708926,0.3433910497780074,2
-0.4700933779739915,-1.0905538578793095,-0.7222454895229881,-0.723393396273691,-1.2246814342818315,-0.31222605056008407,-0.9998147689255197,-0.5798528783815107,-0.41931590259285995,-0.2107613347827639,0.7758301065881547,0.3433910497780074,2
-0.2178170843247755,-1.2935651007741569,-0.7380896451899982,-0.7349706941863678,-1.0789672143626596,-0.7237073962601246,-1.1477432909114347,-1.7256175805481828,-0.5836960546688256,-0.17265389285039412,0.8283226145095482,0.025838784123152547,2
-0.3143365337572141,-0.21081196170131997,-0.41871485768604444,-0.4175971940863165,-0.24951703943814205,-1.00052211973106,0.15895865329749814,-0.06851987080299603,1.3066756942047792,0.030566747137690142,-0.8358203902770841,0.025838784123152547,2
-0.3113783642077395,-1.222035319919373,-0.7775985787877895,-0.7780119809131055,-1.0866473085749238,-0.9159398431149406,-1.1723980445757545,-1.6782719316983203,-0.1727456744789115,-0.5589770615633447,0.8966899459746936,0.18461491695057997,2
-0.2201640618185729,-0.47374618792805945,-0.6240696121638044,-0.6274731737553814,-0.387758735258895,-0.17007794931825182,-0.6916303481215249,-0.06851987080299603,0.484774933824951,0.5406089520881547,-0.5450987398730315,0.025838784123152547,2
-0.5308689944941298,-0.13592462487376017,-0.28076977823712096,-0.28117656213385744,0.3445486263861746,0.34240336305361674,0.33154192894773665,1.288722062893062,-1.0768365108967226,0.5999998967457244,0.3241300761993934,0.3433910497780074,4
-0.31964983002789593,-0.8752523315534172,-0.45949624708321263,-0.45773823798193597,-0.28023741628719834,0.025999146473661434,-0.5005560072230467,0.02617142689672893,-0.2549357505168943,-0.7720627894404108,0.49176248745312223,0.18461491695057997,4
-0.34474945044768,-0.7556582980470905,-0.5920398699063831,-0.5896324949395767,-0.28023741628719834,-0.24312627912308213,-0.4327554346461697,1.1624669992934284,-0.7480762067447913,0.5876822781387473,0.6899490571896952,0.18461491695057997,4
-0.2534781034666487,-1.1322125795046718,-0.5526018496217825,-0.550389932343925,-0.28023741628719834,-0.3776889919214539,-1.1292522256631954,-0.6556059165412907,-0.5836960546688256,-0.7305152675955807,0.6243521248167456,0.18461491695057997,4
-0.5820849760677593,-0.43617494999989953,-0.4731312546211309,-0.4751582014227761,-0.33682758416703873,-0.2502085271651019,-0.6854666597054464,-0.5040998402217309,-0.41931590259285995,-0.34731125768200405,-0.11295530825918161,0.5021671826054348,4
-0.3735569693385652,-0.4137315038083967,-0.47859519262819517,-0.47928212349237737,-0.5490407137164401,0.29512457207040466,-0.12457101384217513,0.02617142689672893,0.07382455363503694,0.04141736775749093,-0.1541936868605533,0.18461491695057997,4
-0.8916929972315009,3.251927001883611,5.236491866849671,5.210144277929071,1.547625006231646,0.8333754232638917,-0.14306207909041452,-0.3525937639021709,2.375146682698556,-0.24073652545110766,1.7308089861522,0.8197194482602896,4
-0.21297644324381595,0.5578154360073884,1.2567006001693328,1.2520873652452282,1.1981807195736316,1.2370635616590073,0.20826816062613976,0.02617142689672893,1.388865770242762,-2.301704007253181,0.3464197086015007,0.18461491695057997,4
0.13629203511825042,-0.8009404250472559,-0.09294209652958829,-0.09232661673478457,0.25736917857128505,0.7232786582470424,-0.7532672322823235,0.7837018084945286,-0.41931590259285995,0.03428486005193534,1.2969826657820074,-0.2917134815317023,4
0.21345781029312066,-0.6173521315900578,-0.19035765956592993,-0.1888464655964892,0.6972291198191354,0.5764829715579096,-0.5806839566320886,-0.8828650310206309,0.8957253140148651,-0.4325515974354871,0.90030489826945,-0.2917134815317023,4
-0.18730637690540136,-0.6707808567864354,-0.5150187524900772,-0.5158551753889122,-0.387758735258895,0.38355149762362023,-0.18620789800297544,-0.7313589547010707,-0.9124563588207568,0.04186547940499417,0.2935340946714635,0.025838784123152547,4
-0.33311235370759723,0.46769188815786417,-0.09987895924881464,-0.10071799743600708,-0.11127534361738928,0.6603662210945568,0.5164525814301326,-0.06851987080299603,0.23820470571100258,0.03916137956994294,-0.8194011542090514,0.025838784123152547,4
-0.16266311322052396,-0.5483714004752607,-0.3361484747797327,-0.3379658456616495,-0.24951703943814205,0.38355149762362023,-0.6546482176250442,-0.06851987080299603,0.5669650098629339,0.1120757021556174,1.0014498313753812,0.025838784123152547,4
-0.07043207487050249,-0.35963945180007295,-0.21364929604005015,-0.2149335613535195,0.35224093060513545,1.0470926730024819,-0.18004420958689474,-0.163211168502721,0.15601462967301977,-0.15340942185713582,0.6754330667903135,-0.13293734870427487,4
-0.40008270455492834,0.8087535716102217,1.0727181892343478,1.0694466487939347,-0.14583576757257738,0.025999146473661434,-0.5067196956391292,0.02617142689672893,3.7723779753442637,-0.5286977681050474,1.1370425667292312,0.18461491695057997,4
-0.35273569330851917,0.18831529646890907,-0.3664400089280791,-0.36685958705080207,0.25736917857128505,0.025999146473661434,0.6089079076713314,1.1624669992934284,-0.5836960546688256,0.40903029683263825,-0.9406433623137044,0.18461491695057997,4
-0.03962799526440367,1.1082466045040016,2.5486723570451963,2.5411029889452563,0.7791638147574604,0.762136340017695,0.3253782405316565,0.9099568720941621,-0.0905555984409287,-1.147825206900534,0.28245190672977794,-0.13293734870427487,4
-0.9217269748474463,1.17027854711028,1.1086209121884905,1.101950731933316,0.3380101678000578,0.8333754232638917,0.3808514362763765,1.6674872536919618,3.4436176711923325,-2.2069023765972777,0.9922109627914084,0.8197194482602896,4
-1.0518241232488907,4.09810418764339,6.715562798268972,6.678436233573406,1.004773468984299,0.3903030762448631,1.7861723951425867,0.49962791539535373,1.388865770242762,-3.873427282741753,1.279737432392612,0.9784955810877172,4
-0.45094489605668836,3.9958783644326554,6.499999326223117,6.472421660840867,2.0445478587765145,1.2588845421127972,1.8354819024712283,3.6244407394862774,-0.5015059786308428,-2.544041285921505,1.4579386876831613,0.3433910497780074,4
-0.9207001721939106,2.979121966529323,3.9164762930017574,3.896449689216016,0.3380101678000578,0.5911625402268226,-1.0183058341737572,-0.3525937639021709,0.8135352379768823,-2.3393829816084857,0.7446191393414113,0.8197194482602896,4
-0.564448216407084,2.368037472994799,3.465304357436858,3.450028882236623,1.2599328284425115,0.8661068939445768,1.5149701048350745,1.288722062893062,1.5532459223187276,-1.403664785793227,1.4292839031406617,0.3433910497780074,4
-0.388781708383122,4.061853007724394,4.8321292707701256,4.813623856131745,1.5214711718871792,0.7351810112218364,1.2930773218561962,1.288722062893062,0.6491550859009166,0.45614361120799585,1.085284163670799,0.3433910497780074,4
0.16429574385106654,-0.3521738255236337,-0.3396979767202098,-0.3460382909221995,0.25736917857128505,0.42968728486877605,-0.038279376017058456,0.7837018084945286,-0.2549357505168943,-0.5814282408112756,-0.06234632490244467,-0.2917134815317023,4
-0.2999694458351117,0.22999999983394487,0.8319801409387334,0.8277646502086267,0.25736917857128505,0.8333754232638917,0.14046758804925902,0.02617142689672893,0.8957253140148651,-0.6615304390855256,-0.07610857606572571,0.18461491695057997,4
0.025604173313214847,-0.45660824291197594,-0.3365988222558395,-0.33431245132375875,-0.35929720964874007,0.334701840540514,-0.14306207909041624,-0.163211168502721,-0.1727456744789115,-0.7569420837225291,-0.4429558284430127,-0.13293734870427487,4
-0.14261026139851404,-0.14941698922685562,0.3566742957662352,0.357312684511467,1.2060866989097858,0.762136340017695,-0.1492257675064969,-0.163211168502721,0.40258485778696823,-6.054986522037808,0.26535767198033244,-0.13293734870427487,4
0.21127974405834643,0.09954719748218771,0.9580677251242075,0.9564620108129711,1.5769490023148358,1.163665718314441,-0.2848269126602547,-0.25790246620244595,0.23820470571100258,-4.387979287900783,0.25188509170780293,-0.2917134815317023,4
-0.23294205039591664,-1.0369302420709154,-0.4814269205875671,-0.48076838713897213,-0.4146390650018191,-0.10856356632471034,-0.6669755944572051,0.02617142689672893,-0.7480762067447913,-1.5997400073427155,0.9116236549184213,0.18461491695057997,4
0.49800158766466485,-0.08833036141620486,-0.06410104815912236,-0.06012384658292987,0.04926339991638855,0.3255097007668113,0.13430389963318004,-0.44728506160189585,0.6491550859009166,0.21984003907371116,-0.11188385269700814,-0.6092657471865571,4
0.605981479617219,-0.9094425723749353,-0.4427082488427787,-0.4433790804685798,-0.262895268065957,0.9505752053786027,-0.8272314932752829,-1.4257618044990537,0.15601462967301977,0.47720422343186986,1.4722298361680008,-0.6092657471865571,4
0.34695187876285444,-0.3535551967901165,0.48854891431088787,0.4883840439787369,-0.14583576757257738,0.22784321567121893,-0.6053387102964085,-0.3525937639021709,0.5669650098629339,0.024739881674346032,-0.2532930365673024,-0.45048961435912976,4
0.19646111485389825,0.09535714999071507,0.33582510692948864,0.33495374478569045,0.4589716516432166,0.22784321567121893,-0.3094816663245745,0.6574467448948951,0.3203947817489854,-1.6605673093881068,0.6212096080035925,-0.45048961435912976,4
0.22983220109383712,-0.4766868834250431,-0.3191570123726438,-0.32176512003530333,0.4589716516432166,0.6819923713657235,-0.5437018261356059,-0.9586180691804105,0.6491550859009166,-1.0574959819000262,0.3158108263088573,-0.45048961435912976,4
-0.3665567829942173,0.4265965995074913,-0.23478225644565934,-0.2344915366904697,-0.24951703943814205,0.5219588593590885,1.034202408380843,-0.06851987080299603,-0.5836960546688256,-1.674411456846151,-0.3967430213524688,0.025838784123152547,4
0.06659391560546347,-0.49362495791335215,-0.0519164907100197,-0.05256600575149546,0.8438491002350855,0.8700743449361746,-0.21086265166729354,0.7837018084945286,-0.41931590259285995,-0.22152011418175327,0.1608689257264183,-0.2917134815317023,4
-0.03419198121626906,-0.7683290925648828,-0.009465515822047642,-0.007642922226995976,0.06762567450358531,0.6196581735253016,-0.7101214133697643,-0.163211168502721,-0.6658861307068085,-2.635341618597858,-0.4089550635045924,-0.13293734870427487,4
-0.23219232147428776,-0.43923558814567876,-0.3400668006179284,-0.3383121437103402,-0.11127534361738928,0.24514413588815195,-0.48206494197480737,-0.7313589547010707,0.23820470571100258,0.46606062226016165,0.10428306673922652,0.025838784123152547,4
0.039496209214003375,-0.27963388047795834,-0.2688707050801636,-0.26779553483243,0.49454855865591035,0.9046145065100885,-0.2909906010763332,0.9099568720941621,0.8135352379768823,-1.1242682312733443,0.0015173795998529964,-0.13293734870427487,3
-0.12569821769320702,1.097561415362768,1.3399071609375433,1.3136142712183032,0.8564165271278816,0.5219588593590885,0.5287799582622921,-0.06851987080299603,3.3614275951543497,-1.421746027081095,0.11124105817594622,0.025838784123152547,3
-0.6793818024079363,2.3600517468044324,2.74875066834711,2.7333698018052894,1.001747540683032,1.2991694291044091,-0.6053387102964065,1.5412321900923283,2.8682871389264526,-0.14840925842399533,1.2075636987527498,0.6609433154328622,3
0.03164418892225266,-0.39801122102634945,-0.19555312314057297,-0.19807328892635612,0.06762567450358531,1.0470926730024819,-0.3403001084049728,-0.163211168502721,0.8957253140148651,-0.1560096824366453,0.9064156363794402,-0.13293734870427487,3
0.2520406978805566,2.0967743111437724,3.8214348912074794,3.816607329264764,1.2837090414829355,0.42968728486877605,0.5534347119266114,-0.8828650310206309,1.5532459223187276,-7.669263653572128,0.7874739523938479,-0.2917134815317023,3
0.560603426864153,-0.7146288927411657,0.08391721315896403,0.08710745862776022,0.6735807358810791,0.7943088292256545,-0.4943923188069663,-1.0343711073401907,0.3203947817489854,0.21593556866430005,1.3167859827677104,-0.6092657471865571,3
0.3716593176135778,-0.0007197140429927256,-0.0817290684458411,-0.08133349954913441,0.4589716516432166,0.6819923713657235,-0.05677044126529415,-0.3525937639021709,-0.1727456744789115,0.7154737775464045,1.3094673972228825,-0.45048961435912976,3
0.5022557801102621,-0.08951084175435471,0.16738625855292028,0.1668241555177225,1.0637790708590107,0.37922626756938715,0.22059553745829671,0.6574467448948951,-0.1727456744789115,0.2420244269013272,1.0929804583844558,-0.45048961435912976,3
0.21065743941983964,-0.3519982449739562,0.2833081032688631,0.28466663732193315,0.8438491002350855,1.0168700316253074,-0.7039577249536858,-1.2995067408994205,0.484774933824951,-0.7573108690524013,1.440885199409401,-0.2917134815317023,3
0.47845921458122503,-0.18195768526709016,0.7531397966027245,0.7564435439796412,0.5175014018899065,1.5756407099903935,-0.5437018261356059,-1.4257618044990537,0.5669650098629339,-1.3633031165468572,1.4867101282167132,-0.6092657471865571,3
0.4556045748734746,-0.7185470053391427,0.14154819487810208,0.14533008198403743,0.20534273390756105,0.9505752053786027,-0.7162851017858427,0.5311916812952623,-0.6658861307068085,-0.1038331403133553,1.412401372444224,-0.6092657471865571,3
0.17977557173392797,-0.2909922373875377,-0.11534468449234653,-0.1127730606024953,0.7613753612511136,0.8333754232638917,-0.5128833840552096,0.6574467448948951,-0.1727456744789115,0.3704156487860126,0.9232504352073172,-0.45048961435912976,3
0.5324491605575034,0.07089992264209792,0.4274396085402406,0.428872746740649,0.9857394038634245,1.1068415815315502,0.30688717528341686,0.5311916812952623,-0.9946464348587397,0.2675667438735156,1.1697103373549844,-0.6092657471865571,3
0.1422039291840663,-0.17407553192439484,-0.26012179198681573,-0.25903496599390236,0.1107491981553353,0.13609591149051106,0.23292291429045564,0.7837018084945286,-0.5015059786308428,0.42401508519819464,-0.6803698630387113,-0.2917134815317023,4
-0.2600626792131382,0.027697835831294534,-0.15760669335866934,-0.1694158381915337,0.30344974384486956,0.9371809445654933,-0.26017215899593293,-0.7313589547010707,0.15601462967301977,0.5257486953433873,0.8034843275144937,0.025838784123152547,4
-0.1857963730031413,-0.9053185553674972,-0.3062720307850462,-0.3049716256573112,-0.501604837699515,0.334701840540514,-0.9073594426843189,-0.8071119928608508,-0.6658861307068085,-0.5337788761874838,1.3201429392740671,-0.13293734870427487,4
-0.14036682702944475,-0.7877546563434826,-0.15122375079029818,-0.15143307651031554,0.7181748313071279,0.10673677415268436,-0.7286124786180017,-0.7313589547010707,-0.5836960546688256,-0.13209278959803536,0.7485316025295009,0.025838784123152547,4
0.12415709466736317,-0.5688468620237567,0.22221863057266755,0.2242678413837881,0.1107491981553353,0.28289159817964354,-0.8518862469396026,-0.8828650310206309,-0.5015059786308428,0.1532076964945654,1.4393615915723859,-0.2917134815317023,4
-0.21987068963184822,1.9470401360214231,0.7337572807530387,0.7290220202895088,0.1652080480241166,0.24514413588815195,2.0697020622822637,1.0362119356937949,1.9641963025086417,-0.6718009369161037,0.041675474670862134,0.025838784123152547,4
0.2901568569891114,-0.34331103972323845,0.15793545994875915,0.15923285448845653,1.0637790708590107,1.1361415270602282,-0.5745202682160082,-0.3525937639021709,0.23820470571100258,-0.21417691020426324,0.8080909881606975,-0.45048961435912976,4
-0.24040674270257859,2.0981585535734926,2.1732554011695435,2.166637554656162,1.685866702052398,1.629217753242834,0.15895865329749814,1.0362119356937949,3.032667291002418,-1.0776926340935777,1.2802562896367893,0.025838784123152547,4
-0.3216708384253334,3.625082880861223,4.507754066923673,4.49516566815707,1.8241083978731512,1.2139956680364292,2.7970172953796917,1.0362119356937949,-1.2412166629726882,-0.7629767092463362,1.4000984186070295,0.025838784123152547,4
-0.3040685072218481,3.7546526333293375,4.9107455321760884,4.8980323014866975,1.8241083978731512,1.3524030297718967,1.6382438731566717,-0.7313589547010707,4.347708507610143,-0.9909317012401272,1.2586301868638687,0.025838784123152547,4
0.27879979733635835,-0.33024619893095947,0.6836265773569986,0.6827693652467369,0.6972291198191354,0.28289159817964354,-0.531374449303449,0.7837018084945286,0.15601462967301977,-1.1134532170728955,1.5645486844607155,-0.2917134815317023,1
0.09335301506126517,-0.38627002020070306,-0.1293425998099156,-0.12697888194524798,-0.03587078226061498,0.13609591149051106,-0.2848269126602547,-0.25790246620244595,0.07382455363503694,-0.5716179701977483,-0.051739301930445306,-0.2917134815317023,1
-0.003387901610171068,1.5579725645943558,2.5039990803057384,2.497894437929622,1.490701955011336,0.762136340017695,-0.07526150651353697,0.9099568720941621,4.676468811762074,-2.431154782167247,1.665375047243921,-0.13293734870427487,1
-0.02180994921773979,1.8270998808802168,2.6799169723099934,2.675409056052295,0.9214714428082353,0.6196581735253016,-0.6608119060411246,-0.8071119928608508,4.347708507610143,-3.687433363353161,1.1757962450361847,-0.13293734870427487,1
0.8672199482766744,0.08392753570808846,0.8528294777831308,0.8561847633828873,1.547625006231646,1.2370635616590073,0.25141397953869726,0.4049366176956288,-0.008365522402945877,-1.947458147575201,1.0971911276867712,-0.7680418800139845,1
0.3915536190258498,-0.3291341251393851,0.36513741229279917,0.361494729028871,0.6101735064471652,0.5306093194675553,-0.5930113334642456,-0.9586180691804105,-0.1727456744789115,-1.9777821439252719,1.7025943578182523,-0.45048961435912976,1
0.36845055932127607,-0.9052203248834515,-0.5934972517836177,-0.5922436929092745,-0.4482394771804744,0.22784321567121893,-0.9135231311004013,-0.3525937639021709,-0.0905555984409287,-1.3266965247663602,0.19272707821259302,-0.45048961435912976,1
0.17051879023613709,-0.07253641991624415,0.3377344611303101,0.3372547917954488,0.1107491981553353,0.8700743449361746,-0.679302971289366,-0.25790246620244595,0.23820470571100258,-1.6049340598247397,0.755249205385657,-0.2917134815317023,1
0.046140226383946846,-0.038744982248710015,0.890126625133017,0.8894255024824204,0.49454855865591035,0.049745507555727125,-0.4019369925657714,-0.163211168502721,-1.2412166629726882,-2.9306638436321344,0.6119327642493078,-0.13293734870427487,1
0.5569599335774084,-0.46453145557430964,-0.23567332426154566,-0.232591488524095,0.04926339991638855,0.4817760769197588,-0.7162851017858427,-1.0343711073401907,-0.008365522402945877,-1.0463402790241403,-0.21181450543567834,-0.6092657471865571,1
0.49237073440333246,0.23943357652329325,0.9893378136932275,0.9791836725634459,0.5175014018899065,0.638042453072707,-0.07526150651353525,-1.0343711073401907,0.40258485778696823,0.425643123988462,-0.331789879401745,-0.6092657471865571,1
0.4980015876646632,-0.4209280266081852,0.2575523356982275,0.25878105630433623,1.1418187378545968,1.1068415815315502,-0.22319002849945024,2.488145167089578,-0.5015059786308428,-0.9288911195926499,0.33139529335545215,-0.6092657471865571,1
-0.2439272089432763,0.09032247206718595,-0.2913291072524145,-0.2938986166940332,0.44169143966562263,-0.17007794931825182,0.4178335667728548,-0.06851987080299603,-0.5836960546688256,-0.11239876312940679,-0.8553547159172401,0.025838784123152547,4
0.7234675767815504,-0.12348874385824453,0.624420560089063,0.6288195081540661,0.25736917857128505,1.0755883063009608,-0.16155314433865536,-0.5419763593016208,0.15601462967301977,0.1747268337322736,1.0113181716988782,-0.7680418800139845,4
0.19852249896895238,0.1695868740806677,0.43157892884929977,0.4314077715956882,0.6972291198191354,0.5764829715579096,0.10964914596885826,0.7837018084945286,-0.41931590259285995,0.40900722317928667,1.1834700202828976,-0.2917134815317023,4
0.7381850814822438,0.2292241869819621,0.9335314838522991,0.935141102780679,0.7412151139439206,0.9141130509429151,-0.531374449303447,-0.5419763593016208,0.8957253140148651,0.539767597539781,0.31983798646138234,-0.7680418800139845,4
0.10321837388936182,2.4401496250223627,3.942289041889367,3.932813884151699,1.0637790708590107,1.1895708394948754,1.1451487998702812,0.9099568720941621,2.4573367587365387,-2.278183757691158,1.5792873679481134,-0.13293734870427487,4
-0.08613611545400308,5.792734271441324,8.003324762803121,7.979837453629224,1.490701955011336,1.3320490059872694,1.8416455908873048,0.9099568720941621,4.512088659686109,-5.132837535336677,-0.060782880610191534,-0.13293734870427487,4
-0.49035191681403867,3.1612054117858337,4.384049861240765,4.364827226439604,1.3907020001648454,0.9970327766673165,3.3640766296590376,3.6244407394862774,-0.9946464348587397,-2.224339992517811,1.7403751770036766,0.3433910497780074,4
0.2526143849691804,1.2601422710773662,1.5690397463144539,1.5697711758427242,0.7613753612511136,0.6819923713657235,-0.6423208407928852,-0.3525937639021709,3.9367581274202292,-2.920179420586307,1.4185511193733986,-0.45048961435912976,4
0.10231237154800578,2.289384089347023,2.4223920068805236,2.418494641402503,1.490701955011336,0.762136340017695,0.17128603012965707,-0.8071119928608508,5.3339894200659375,-6.163721151653915,0.5748406155068926,-0.13293734870427487,4
0.537748787156401,0.3991913796098979,0.42761146728000504,0.4310035059269309,0.6735807358810791,1.2631079576844984,0.8246370022341255,0.5311916812952623,-0.33712582655487716,-0.24623761762954308,-0.11251433721855553,-0.6092657471865571,4
0.7950014949779344,0.20820682382754382,1.0780612863550751,1.0822570900239254,0.5799331354863754,0.5911625402268226,0.04801226180806386,-0.5419763593016208,1.0601054660908307,-0.5216609061569093,1.0858932066406952,-0.7680418800139845,3
0.4201633219933397,0.3984244004811184,1.1907488481615476,1.191732529954608,1.2978980718457696,0.7943088292256545,-0.12457101384217685,-0.44728506160189585,0.40258485778696823,-6.32741161872875,-0.4044004067850172,-0.6092657471865571,3
0.3508023887136162,-0.3638395357784974,0.7337211909099007,0.7345640888876694,0.30776979683926814,0.07646016377305072,-1.178561732991837,-1.6512172752126848,0.5669650098629339,-1.0024949976846307,1.6036601021565042,-0.45048961435912976,3
-0.04446000775163506,0.8505279174221502,-0.0151659577816389,-0.017243828883864935,0.06762567450358531,0.334701840540514,0.522616269846213,0.9099568720941621,0.8135352379768823,-1.4697018872579672,-0.9185303586543206,-0.13293734870427487,3
0.4011798939027541,0.6595564338396274,0.2672446401567527,0.26859225627784583,0.30776979683926814,0.5306093194675553,0.15895865329749986,0.6574467448948951,0.3203947817489854,-0.17270113920782215,-0.4436810265004595,-0.45048961435912976,3
-0.014259929706441094,-0.4132043765788325,0.10838740049701978,0.10871425813738786,-0.07468195354718976,0.334701840540514,-0.8518862469396047,-0.8071119928608508,0.07382455363503694,-1.432945422780351,1.3963529823863108,-0.13293734870427487,3
0.19541097577641753,0.8786428185569961,0.5062179275905372,0.4978195313050142,1.430329021898886,0.7232786582470424,1.1451487998702812,0.7837018084945286,1.9641963025086417,0.4610454628284961,-0.39298248186223955,-0.2917134815317023,3
0.6385852240891937,-0.011028201852513913,0.012347243879431992,0.016961792315554593,0.4186511570288299,0.7526377955848684,0.4301609436050142,0.4049366176956288,0.9779153900528479,0.121638487543126,0.8827328519187028,-0.7680418800139845,3
0.04325749166145043,-0.6356801495264168,-0.18390216061468323,-0.1823956554325015,0.25736917857128505,0.28289159817964354,-0.48206494197480937,-0.8828650310206309,-0.7480762067447913,0.5821145115393032,0.7283331961659051,-0.2917134815317023,3
0.23239920772767883,-0.3775893673713614,0.5011039126002884,0.5030007265555461,0.9125772160550621,0.5306093194675553,-0.4265917462300893,-0.9586180691804105,0.3203947817489854,-1.884739665029365,1.3725802594074958,-0.45048961435912976,3
0.3617121669074422,-0.696551303620995,-0.06376187597402933,-0.06048037339360975,0.15656794203531962,0.6819923713657235,-0.6608119060411246,-0.3525937639021709,0.07382455363503694,0.5012001240093261,0.779878984156396,-0.45048961435912976,3
0.2808514579414359,-1.0148113240958607,-0.48792602680978675,-0.48633354521125477,-0.4482394771804744,0.5306093194675553,-0.6731392828732855,-0.9586180691804105,-0.5015059786308428,0.6606574197228363,1.4188464375415273,-0.45048961435912976,3
0.4479863616375578,-0.4439000762308435,0.5914102642483703,0.5947635043470656,0.8296600698722515,0.012976948460915922,-0.8518862469396026,0.5311916812952623,0.07382455363503694,-0.6069196462791008,1.4547162558056368,-0.6092657471865571,4
0.7272325198445194,-0.864089056688141,-0.4324489274191268,-0.42761349251296715,-0.387758735258895,0.42968728486877605,-0.7532672322823235,-1.1101241454999706,-0.2549357505168943,0.7771448458405444,0.4015480403417792,-0.7680418800139845,4
0.732366533112202,-0.2966788780746702,0.6259963415281613,0.6298941455956358,0.25736917857128505,0.7526377955848684,-0.4265917462300893,2.298762571690128,0.23820470571100258,-0.332321513924605,1.577789714409996,-0.7680418800139845,4
0.4031051488781358,0.0380845996387277,0.15134256451088143,0.1537732406302028,1.2149809256629591,1.1361415270602282,0.276068733203019,0.6574467448948951,-0.33712582655487716,0.5186971947492256,0.8951834372539005,-0.45048961435912976,4
0.6440725457968032,-0.2113649117239711,-0.09289347695042467,-0.09018968042053312,0.5175014018899065,0.4817760769197588,-0.08758888334569614,-0.44728506160189585,-0.9946464348587397,0.6342588129296898,0.41999649374540904,-0.6092657471865571,4
0.43838078842705325,2.13810114359968,3.4851699163561913,3.48625311255674,1.610056739828115,1.419374333837446,1.3670415828491562,0.5311916812952623,1.5532459223187276,-3.359192762383434,1.6482017971246183,-0.6092657471865571,4
0.7436613623011045,-0.2562845638123687,-0.0893697981374229,-0.0904344199590957,0.4186511570288299,0.10673677415268436,-0.679302971289366,-0.5419763593016208,1.1422955421288137,0.07597345224372455,1.096757941280071,-0.7680418800139845,4
-0.02830754176685775,1.7044170127955043,0.878932362504403,0.8689653880778713,0.5506091394031852,0.28289159817964354,1.4410058438421152,2.866910357888478,-1.2412166629726882,-2.825905900804174,-0.8340427498334637,-0.2917134815317023,4
1.0653928604092342,0.45802675006177174,0.8160170826069078,0.8231809539171757,1.0637790708590107,0.48735701892522176,-0.3896096157336105,0.15242649049636242,1.5532459223187276,0.3570240255529548,1.0062102435193547,-1.0855941456688394,4
0.29464911859833404,2.2072281690347006,0.7613210128464931,0.7030378709853892,1.0637790708590107,0.37922626756938715,0.356196682612055,0.6574467448948951,4.347708507610143,-0.16472432626019928,0.02626538631047262,-0.45048961435912976,4
0.8319663905052521,0.3259952628862364,0.6176873186533598,0.61164072002116,1.0637790708590107,0.9141130509429151,0.19594078379397886,0.4049366176956288,-0.33712582655487716,0.6431149828051542,0.8240718894611685,-0.7680418800139845,4
0.4526235349115931,0.05513504058778916,0.05950259347602091,0.06328269282388142,0.20534273390756105,0.638042453072707,0.13430389963317832,2.488145167089578,-0.7480762067447913,-0.3543019443786258,-0.23927337527220133,-0.6092657471865571,4
-0.15771030042111142,0.030880438056432286,-0.1327742495075948,-0.13073359093657358,0.49454855865591035,0.762136340017695,0.09732176913670154,-0.163211168502721,-0.6658861307068085,-0.4874080194885572,0.1492189660682423,-0.13293734870427487,4
-0.4517774387487444,-0.850187146483858,-0.35270725063126934,-0.35268470400296126,-0.04775888878082696,0.34240336305361674,-0.9751600152611998,-0.5798528783815107,-0.33712582655487716,0.23182829170804786,1.3598517371446803,0.3433910497780074,4
0.31229728920599387,0.46455301169681357,0.30315244644834594,0.30590141247699815,1.0637790708590107,0.9847584751620599,0.8554554443145277,0.6574467448948951,1.7176260743946934,0.30093437722507427,0.40336677719486175,-0.45048961435912976,4
0.2601306581811484,0.3121758861653531,0.4902271477836881,0.4917307310005941,1.2837090414829355,0.8700743449361746,-0.18620789800297738,-0.8828650310206309,-0.1727456744789115,0.6729484077542397,1.0402675075574686,-0.2917134815317023,4
0.1250905516251246,0.6404200320215869,-0.07522189770341046,-0.072990273573756,0.8438491002350855,0.5764829715579096,0.9972202778843642,0.7837018084945286,-0.9946464348587397,0.6392889729359107,-0.9298728452250316,-0.2917134815317023,4
0.15838384978524983,-0.3891919598944217,0.21382513359758148,0.21455799246726787,0.1107491981553353,0.13609591149051106,-0.679302971289366,-0.25790246620244595,-0.2549357505168943,0.42176459834718716,1.4790647190692996,-0.2917134815317023,4
0.035872199848579214,1.4767796399855457,0.5573977831968976,0.5573210000921968,0.9214714428082353,0.9046145065100885,0.7753274949054858,-0.163211168502721,-0.0905555984409287,0.5796242519526487,-0.7594694007620193,-0.13293734870427487,4
-0.08311610764948295,-0.022071039917170764,-0.01625898495841501,-0.017597877793745265,1.3483943269605607,1.0470926730024819,0.12814021121709984,-0.163211168502721,0.07382455363503694,-0.42566034496006255,-0.2846771111568225,-0.13293734870427487,0
0.39251624651354183,0.8577214966280794,0.6425538429831549,0.6408955253634278,1.819788344878753,1.2875245789583964,0.29455979845125646,-0.9586180691804105,0.6491550859009166,0.5854730038247975,0.26136433918655255,-0.45048961435912976,0
1.740318143060786,0.37103504177635555,0.7351353113030935,0.7454082318386194,1.2498736613869472,0.7402166220957876,0.6458900381678102,1.5412321900923283,-0.2549357505168943,-0.20925408710476762,0.8895432337830245,-1.4031464113236942,0
1.8382593192442758,0.4527999521636007,1.1332913189531326,1.1415916132724988,2.3664412045545675,1.6718046337768233,0.6335626613356532,-0.10008363670290457,1.3066756942047792,0.4116189911204391,1.3335945022964966,-1.4031464113236942,0
1.2700199606497409,0.04631191578533646,0.6459323230252386,0.6530467668667902,1.5821854301868337,1.1793938276025617,-0.013624622352738636,0.15242649049636242,-0.1727456744789115,0.5772777912813549,1.4836059806184068,-1.0855941456688394,0
1.6609383994604572,1.9523732747925358,2.1219378319969326,2.114995778173209,1.9942520234986933,1.2991694291044091,0.39317881310853353,1.5412321900923283,-0.33712582655487716,0.49468961506112674,1.0815523221902013,-1.4031464113236942,0
1.8765669567031407,0.8651161316948819,0.6603128371488428,0.6583503451246666,1.7411633803806998,0.6880476934416503,0.7506727412411699,-1.4888893362988704,1.882006226470659,0.4042979376384643,0.2707936110081426,-1.5619225441511218,0
1.9946492618598477,0.11328096311818674,1.0010547478672556,1.0106645621471928,1.808157432970757,1.2991694291044091,0.07883070388846412,1.5412321900923283,-0.0905555984409287,0.13016787274739633,1.3429621873250737,-1.4031464113236942,0
1.8129841770033752,2.3094969581165317,2.6056372306153306,2.6090821258421273,2.1803466140266297,1.485487031440616,2.2422853379325005,1.5412321900923283,-1.2412166629726882,0.5236876647452998,1.0821365364889772,-1.4031464113236942,0
2.0552306184185056,0.1591369612256889,0.7213220035165979,0.7331589703397926,1.1605482579335378,1.2693586127306162,-0.3341364199888865,-0.22633870030253742,0.23820470571100258,0.05822646259950327,0.8680696686857068,-1.5619225441511218,0
1.4224920054725148,0.845554272497692,0.9884473394648297,0.995024705724628,1.153380170002091,1.3267720368579217,0.9602381473878855,1.7306147854917782,0.07382455363503694,0.4720114954853909,0.6080202418376249,-1.244370278496267,0
1.5444357906938049,0.34571866316446487,0.668448088997347,0.6788107161233694,1.4359682519148835,1.1128518267682024,0.30688717528341686,-0.9207415501005207,0.7313451619388995,0.37477500533813685,1.0901733509809894,-1.4031464113236942,0
0.7511912484270377,0.6760495820120286,1.0436407279061328,1.0421148457063194,2.192752920061826,1.7214893277331442,0.33154192894773493,-0.5419763593016208,0.07382455363503694,0.5398851135328793,1.377183025801259,-0.7680418800139845,0
2.618097046931086,-0.32577987873840597,0.43559316944368104,0.4504506358613735,1.5896985658292664,0.7807204486906154,-0.4327554346461697,0.9730844038939785,-0.5836960546688256,0.742008739058857,1.1889886367035758,-1.8794748098059766,0
2.2710303094367794,1.699427308142398,1.7667048233663691,1.7855671342336656,1.2653815439309415,1.0352194924614488,1.2992410102722787,1.1624669992934284,2.292956606660573,0.25226392044837265,0.4566718712690296,-1.7206986769785493,0
1.8289233135790435,0.2399949352755354,0.7599745271494874,0.7633388991614224,1.7411633803806998,1.4631289191602714,0.060339638640223035,-0.22633870030253742,1.3066756942047792,0.2019334506302377,1.3217138038080478,-1.5619225441511218,0
1.7936013022973856,1.1910091361095045,1.3920612735942879,1.4033683227964588,2.5153168769769163,1.4631289191602714,1.0465297852130038,-0.22633870030253742,2.703906986850487,0.6354381459826237,0.8935023789409351,-1.5619225441511218,0
2.1931644415435887,-0.20559666708767368,0.7640863604735114,0.7734121159048533,1.2653815439309415,0.8333754232638917,0.22059553745829844,-0.3525937639021709,0.5669650098629339,0.4231670081175673,1.3565050673249432,-1.7206986769785493,0
1.8410237879268734,0.3169895295171532,1.2992750623179727,1.3062084080960927,1.9942520234986933,1.485487031440616,0.8616191327306042,-0.10008363670290457,1.0601054660908307,0.2870332197356433,1.3654803118671202,-1.4031464113236942,0
1.7806004010072236,0.6366727519142169,0.8451958036908223,0.8446928793954673,1.6220628424428207,1.2991694291044091,0.9787292126361229,-0.10008363670290457,0.07382455363503694,0.3668425385494979,1.3154514422112868,-1.4031464113236942,0
1.6858186176038428,1.5650502979356773,1.8495320622144527,1.8403391546386347,1.9942520234986933,1.6718046337768233,1.330059452352677,1.5412321900923283,0.7313451619388995,-0.010346698895384183,1.1214999328926414,-1.4031464113236942,0
0.9517364287591511,1.6140118218957744,1.1361477562277527,1.1340049832800736,0.47982707989203705,0.5410495299432914,0.454815697269336,0.27868155409599527,1.3066756942047792,0.33070706145774503,0.36031954404959543,-0.9268180128414121,0
1.7149406130908986,2.3545663081523167,2.530413566577371,2.542628515650922,2.40779555800522,1.1473550864600923,2.3778864830862587,1.7306147854917782,-0.6658861307068085,0.6639102450276776,0.8409183086750356,-1.244370278496267,0
1.8015313781754672,0.07737651454850594,0.6545078357673116,0.6648537357969897,1.6220628424428207,0.9265342244319957,0.6150715960874119,-0.10008363670290457,1.0601054660908307,0.030656757943513916,1.113313280476562,-1.4031464113236942,0
1.589442510991983,0.7926860547480241,0.6427686577588694,0.6514861553221919,2.049391161432897,1.1473550864600923,0.8123096254019705,0.02617142689672893,0.15601462967301977,-0.1946804881790694,-0.25516364305560824,-1.244370278496267,0
2.1090350774638242,0.6069605698524378,1.2887586715451986,1.3029380520241076,1.3540866320825922,1.2693586127306162,0.060339638640223035,-0.22633870030253742,2.4573367587365387,0.615127689387144,1.0755805311605933,-1.5619225441511218,0
1.978062449764256,1.4659528890120987,0.5187412524608732,0.5146312804870988,2.3664412045545675,1.485487031440616,0.454815697269336,-0.10008363670290457,3.1148573670404014,0.5583205912822322,0.4816336091679801,-1.4031464113236942,0
2.01374779121563,1.9365770485345828,2.29219180439899,2.302321200665571,1.9347017545297538,1.0755883063009608,0.6273989729195728,1.3518495946928784,-1.0768365108967226,0.6313166973261173,1.1511022230116195,-1.5619225441511218,0
2.256483938511677,-0.12030551216614871,0.7005949028590516,0.7029380847578965,1.6685864900748044,1.2370635616590073,-0.007460933936654266,-0.3525937639021709,0.15601462967301977,0.4719921634471191,1.3832558424991208,-1.7206986769785493,0
1.9739078482584096,1.0301989513617402,1.369983301964072,1.3830453100211764,1.9347017545297538,1.2693586127306162,0.9232560168914067,1.3518495946928784,0.484774933824951,0.6252978296590662,0.9968051147046469,-1.5619225441511218,0
1.6917424790665543,1.7527764815829296,1.3860051464241976,1.385865934676834,2.228593359719058,1.5061889872557503,2.439523367247057,1.7306147854917782,0.8957253140148651,0.5416202920446593,0.25034482325851726,-1.244370278496267,0
2.467406316925654,0.07623383609557494,0.626372451180833,0.6153675309644993,1.2653815439309415,0.8333754232638917,-0.5930113334642456,-1.8676545270977702,2.375146682698556,0.36265735134554156,0.9794718384878278,-1.7206986769785493,0
1.918033986942118,-0.2084290078234217,0.47805666198271085,0.48154751581692457,1.2498736613869472,0.9265342244319957,-0.13073470225825118,1.5412321900923283,0.23820470571100258,0.09994342598565288,1.1626428632812438,-1.4031464113236942,0
1.7130683803323143,0.9570142299448744,1.3022198552254574,1.3142922716708672,1.6220628424428207,1.2991694291044091,0.41783356677285727,-0.10008363670290457,2.8682871389264526,0.5853027119207663,0.6167886337601619,-1.4031464113236942,0
2.0059440910487507,2.0993189901657736,2.375575829528081,2.3842937670334456,2.128240128678808,1.0755883063009608,1.5889343658280355,1.3518495946928784,0.6491550859009166,0.6151546856744889,1.0978154966686373,-1.5619225441511218,0
2.336163824426117,-0.760890376459132,0.10756104341404851,0.11685430869397619,1.3540866320825922,0.8818179998713056,-0.6053387102964065,-1.4888893362988704,0.3203947817489854,0.14287877566132082,1.1646343128567291,-1.5619225441511218,0
1.952550353064849,-0.24301226885864655,0.5964503845507863,0.6083395314203776,1.3540866320825922,1.0755883063009608,-0.11224363701001375,-1.0154328478002457,0.07382455363503694,-0.21227202509982418,1.1420838955021366,-1.5619225441511218,0
1.7170176213074548,1.3148854251736293,1.3256614573894492,1.3347127809876633,1.0637790708590107,0.9265342244319957,0.28839611003517573,-0.10008363670290457,1.7176260743946934,0.41667496404142534,0.5960927018720197,-1.4031464113236942,0
2.082748929533286,-0.3118039017046186,0.3691636289846559,0.3792309307176786,1.1605482579335378,0.6880476934416503,0.18361340696181994,-0.22633870030253742,0.9779153900528479,0.10230608621151342,1.1156850950175412,-1.5619225441511218,4
1.4437886531014223,2.4987340522072063,3.061313895561023,3.0742026690969393,1.8701889631467354,0.9679381360622639,0.30688717528341514,0.02617142689672893,3.3614275951543497,0.1727432230678961,1.1516175032910387,-1.244370278496267,4
2.0179497836131786,1.2043802238245336,1.908694216976687,1.922106987178661,2.3664412045545675,1.485487031440616,1.5704433005797946,1.5412321900923283,1.6354359983567104,0.6182098247497636,1.2552054928471128,-1.4031464113236942,4
1.7979770612978399,1.505116524216298,1.9301964226634205,1.9363495620154831,1.808157432970757,1.485487031440616,1.2437678145275624,1.5412321900923283,0.6491550859009166,0.4831244970434428,1.2024791664810952,-1.4031464113236942,4
2.508478423067115,1.0729268295797525,2.0970301302329113,2.116493676339192,2.6765988554344617,1.4389076308565645,1.169803553534601,1.1624669992934284,-0.0905555984409287,0.7151509459455111,1.0453145498506329,-1.7206986769785493,4
2.4909372110691987,0.29793271798171606,1.5741435738690674,1.5919804897275927,2.2733939092905984,1.2370635616590073,0.7630001180733269,1.1624669992934284,-0.6658861307068085,0.19146149154586867,1.4139785201844497,-1.7206986769785493,4
2.4254785419062426,0.737114063949894,1.6832076276297854,1.6950990082929358,2.0717914362186676,1.2370635616590073,0.47330676251757736,1.1624669992934284,0.15601462967301977,0.5831656194245359,1.2547142569927023,-1.7206986769785493,4
1.9334360267451665,1.517929704325884,1.6748588066685313,1.6868026862377696,1.4359682519148835,1.1128518267682024,0.2883961100351794,1.5412321900923283,2.375146682698556,0.48308721648220926,0.7292399526028972,-1.4031464113236942,4
2.0001939961889446,1.3967819550974796,1.880148323227411,1.8928959151114237,1.7411633803806998,0.8818179998713056,0.9972202778843642,-0.22633870030253742,2.292956606660573,-0.4367828117861243,0.8032765893430608,-1.5619225441511218,4
1.8935486928962455,0.3149659650388852,1.1688255291672356,1.1798754538565464,2.1803466140266297,1.1128518267682024,0.47947045093365387,-0.10008363670290457,0.3203947817489854,0.35722894824843027,1.229007516787217,-1.4031464113236942,4
2.112731567016556,0.9094828285374642,1.2346029682254833,1.2485260735643897,2.128240128678808,1.4631289191602714,0.6027442192552549,1.3518495946928784,1.6354359983567104,0.4861758012013538,1.4751783824704814,-1.5619225441511218,4
0.7077232694273238,2.9040836345235967,1.0946536107213862,1.0815153409163878,0.5799331354863754,0.42968728486877605,3.641442608382634,2.298762571690128,-0.9946464348587397,-0.02073707662870395,0.2626825814479194,-0.7680418800139845,4
0.7761767796630938,3.8237535589641034,1.1133538375574272,1.085731719787664,1.0637790708590107,0.7526377955848684,3.777043753536395,2.298762571690128,-1.2412166629726882,0.029366051112888633,-0.4728528946080278,-0.7680418800139845,4
1.5472295130132563,1.3977458145174764,1.0297882158888734,1.0321896809544837,1.8701889631467354,1.5061889872557503,1.391696336513477,1.7306147854917782,0.9779153900528479,0.5478185068133176,-0.23738064136748202,-1.244370278496267,4
2.2219833693528495,1.745583651784789,1.5397365218839003,1.5346078716429115,2.321778502827862,1.6568992255899269,1.9094461634641873,-0.22633870030253742,2.9504772149644354,0.7412591971167037,0.9042972572718796,-1.5619225441511218,4
1.3598651928341923,0.7314680925977007,-0.03694687474324575,-0.039220591421318826,0.5453727115311872,0.6603662210945568,0.2883961100351738,0.15242649049636242,0.8135352379768823,-0.5745219670001335,-0.4163690243122576,-1.0855941456688394,4
-0.4337390137541837,0.6547835636725223,0.25203555036267605,0.24333941561683783,0.9293774221443897,1.1025008488606354,0.8492917558984453,-0.6556059165412907,-0.6658861307068085,0.5856890838677956,0.5415854017386561,0.18461491695057997,4
0.341817865495171,1.7122775762190157,1.7997861674170743,1.7999340720349235,1.3661827804669076,1.1361415270602282,1.465660597506437,0.6574467448948951,-0.33712582655487716,0.6069130328322639,1.348249398881573,-0.45048961435912976,4
1.5502718912459588,1.001409355896339,1.634451211650188,1.6391155886521402,1.8701889631467354,1.1473550864600923,1.453333220674278,1.7306147854917782,-0.1727456744789115,0.6202865202446856,1.1904161662420345,-1.244370278496267,4
1.5251722708261748,2.405064530348371,2.3640309084581146,2.360548804828723,1.8701889631467354,1.3267720368579217,2.3902138599184193,1.7306147854917782,0.07382455363503694,0.36217553479199405,1.2364400677003606,-1.244370278496267,4
1.7600643479364884,1.2944314559216128,1.7133081507342502,1.7212188519532383,2.3664412045545675,1.2991694291044091,1.2745862566079569,1.5412321900923283,-0.2549357505168943,0.2912039889900985,0.7278593447253725,-1.4031464113236942,4
1.7039851260894905,0.7470119207488393,1.3500329129656383,1.3604505136635374,2.3664412045545675,1.6718046337768233,0.9664018358039659,1.5412321900923283,1.7176260743946934,0.5222826896034676,1.1321686179663812,-1.4031464113236942,4
0.22983220109383712,0.7459976129112871,1.0180524600928091,1.0023031389078605,1.5173846352708562,0.9847584751620599,-0.2416810937476955,-0.9586180691804105,0.3203947817489854,0.38475512853307314,1.1794515916733872,-0.45048961435912976,2
-1.4428059850933213,-0.2571599394610374,-0.684045218877967,-0.690075993554806,-0.8056256794443527,-0.818076051988852,0.24525029112261826,-0.04958161126305077,0.7313451619388995,-1.7224167895239395,-0.9423681873399908,1.4548239795699993,2
-2.7080227271857966,-1.472112677601439,-1.2331538455330342,-1.231636433482259,-1.3554506060041653,-2.799817822292145,-1.2217075519043943,-2.023616664485553,-1.2412166629726882,-1.4133166491948677,-0.8895253168010042,4.154018237636266,2
-2.4552792555063925,-1.0164266788248066,-1.124033672008024,-1.1260086278299373,-1.3554506060041653,-2.374882939770971,-0.9998147689255197,0.9352078848140887,-1.2412166629726882,0.7150714732995175,-0.45557424034921173,3.518913706326556,2
-1.7844123375937706,-0.827267895974088,-0.8045407456490382,-0.8048097057843439,-1.153848132932234,-1.3869093379092419,-0.46973756514264653,-0.3525937639021709,-1.0768365108967226,0.24293135183986395,0.22868171230038062,2.089928510879709,2
-1.4810777203615024,-0.1701199862264399,-0.4088879733107866,-0.41477907503879424,-0.6028013732022884,-0.43151407704080275,-0.7779219859466433,-0.5419763593016208,-0.008365522402945877,-1.478727405965535,-0.29037608808148596,1.6136001123974268,2
-0.9476537418492453,0.5845697469514992,-0.21521618336269685,-0.2161856737788492,0.4589716516432166,-0.014369667365850545,-0.11840732542609445,-0.3525937639021709,-0.2549357505168943,0.5761840103359442,-0.14429571660229998,0.8197194482602896,2
-0.7857480260050604,0.591000924041568,-0.04266685054345663,-0.04372871602404621,0.38143223892324307,0.678110754650386,0.5780894655909312,1.5412321900923283,-0.830266282782774,0.22572018978500485,-0.09015081316669914,0.6609433154328622,2
-1.7341417910143744,-0.08332849176389176,-0.31728976580466184,-0.32060866308977404,-0.851444423324337,-1.0841432341129054,-0.5683565797999277,0.2534305413760687,-0.9124563588207568,0.718354265977501,-0.7598857186409055,2.089928510879709,2
-0.6983381590886122,0.8964476581946615,1.0370898962086552,1.0306829811306861,0.6295583596271583,0.05705208019636267,0.7260179875768501,4.003205930285177,-0.9946464348587397,-3.7154637389530443,0.416544277074723,0.6609433154328622,2
-0.607214619956943,1.2433657332835542,0.5950942536888627,0.5918106244677196,0.5544675599404476,0.0047524023476028235,2.020392554953624,3.8138233348857273,-1.2412166629726882,-0.2557429326022647,0.549931463736864,0.5021671826054348,2
-0.7034098159198444,0.3671007942482354,0.2011834568983809,0.1998266873054682,0.5544675599404476,0.6421547261293635,0.7691638064894093,1.4149771264926947,-0.6658861307068085,0.3657226088847763,-0.18675340795391435,0.5021671826054348,2
0.7412654894428538,1.5875051063492023,0.9393698456290265,0.936704799224896,1.0637790708590107,0.5911625402268226,1.7800087067265062,2.298762571690128,-1.2412166629726882,0.5395253422559211,-0.7256188973606699,-0.7680418800139845,2
-0.5461322771818377,0.1811044654894447,0.06867147144445225,0.06844613554959275,0.736856141553176,0.47332924577635643,0.33154192894773493,1.288722062893062,0.15601462967301977,0.579750274258439,0.6767101160010685,0.3433910497780074,2
-1.3499270177961478,-0.2760431894163626,-0.5591401415055754,-0.55898901460897,-0.6956606941323901,-0.26759222690460427,-0.21086265166729354,-0.04958161126305077,-0.9124563588207568,0.5315639190128193,0.22312651817522902,1.4548239795699993,2
-1.7198639544711813,-1.1023179252278081,-0.8433834048208343,-0.8422224038372196,-1.25250466230786,-1.0476395194707937,-1.1477432909114367,-1.4047192938991149,-0.5836960546688256,0.6705262053830205,0.5967688444746638,1.9311523780522817,2
-1.689059874865085,-0.9666501914427269,-0.951944727224656,-0.950736557221994,-1.3554506060041653,-1.2537781433321291,-0.7902493627788042,-0.4157212957019877,-0.830266282782774,0.39498772992704373,-0.18883921150349137,1.9311523780522817,2
-1.3627620509653555,-0.2197609966232692,-0.5771651507855176,-0.5769571365473436,-0.47573072350846496,-0.15749546188775496,0.06650332705630324,-0.6051038911014376,-0.830266282782774,0.7315342498922118,0.07245045564309192,1.4548239795699993,2
-0.9645959856325984,0.6880220120962638,0.04417446145520709,0.018663297206821684,-0.387758735258895,-0.3776889919214539,1.0033839663004431,0.4049366176956288,-1.2412166629726882,0.38511657650595565,-0.4810585542084796,0.8197194482602896,2
-0.6118082107753972,0.273402723591098,-0.029944387144186586,-0.0364137249240483,0.17248392675152466,0.6421547261293635,-0.013624622352736919,1.4149771264926947,-0.5015059786308428,0.5398931563913231,0.03472631811350837,0.5021671826054348,2
-0.5172707971905373,-0.07661192380063706,-0.22636373722419206,-0.22938609388493794,-0.04775888878082696,-0.18130016783734368,0.060339638640223035,1.288722062893062,0.5669650098629339,0.4083161141329009,0.25343644707345997,0.3433910497780074,2
-0.4559401522090294,0.932930496617846,0.2156546106002224,0.21484537971532924,0.4753177981085084,0.7351810112218364,0.9479107705557246,0.12086272459645389,-0.0905555984409287,0.43336553822553264,0.15075973609550797,0.3433910497780074,2
-0.45798296529601923,1.044470024433728,0.5607394417246385,0.5580741576973134,0.25736917857128505,0.9679381360622639,0.10964914596886047,1.1624669992934284,-0.5015059786308428,0.4057723553540941,-0.5034749240158913,0.18461491695057997,4
0.10237643231961838,1.6577903584829863,0.5728359011969028,0.5740164524014231,0.9904690806510352,1.3104614050035732,2.155993700107382,2.866910357888478,-0.41931590259285995,0.6772997135297684,-0.06215823911735612,-0.2917134815317023,4
-0.45372003836354446,2.05408915500451,0.5509037763668883,0.5235728295113804,0.6060869698308422,0.6042551284990968,1.2684225681918784,1.288722062893062,0.07382455363503694,0.6327205474689263,-0.7578873254090173,0.3433910497780074,4
-0.9799980254356478,1.4380049683271303,-0.33104422573647735,-0.33615442896061476,-0.387758735258895,-0.3776889919214539,1.9094461634641864,-0.3525937639021709,-0.7480762067447913,-0.17243790806839338,-2.2997006077196684,0.8197194482602896,4
1.6008514293646108,1.1586463163514145,1.9015324779030631,1.906974473436006,2.049391161432897,1.3267720368579217,1.2437678145275586,1.7306147854917782,-1.2412166629726882,0.4063967168276682,1.2615061656978217,-1.244370278496267,4
1.557117242269533,0.759767052976048,1.7084277406527053,1.7179805424724324,2.5869977562913804,1.8650228880514075,0.8492917558984453,-0.8260502524007957,-0.008365522402945877,0.2704529095794372,1.2602314590549242,-1.244370278496267,4
1.2747872586840192,0.6491132924677666,1.305617328863475,1.3119340176616572,1.2365811906349518,0.8333754232638917,0.14046758804925902,1.919997380891228,-0.0905555984409287,-0.08525115518907236,0.8352338029168993,-1.0855941456688394,4
1.7500648697874337,0.5594623198350721,1.2465686168016148,1.2573680775566867,1.3540866320825922,1.0755883063009608,0.5780894655909331,1.3518495946928784,-0.9124563588207568,0.7201936433811589,1.5458012069681792,-1.5619225441511218,4
1.4559581660322258,1.0034726538569931,2.075561169653117,2.0826028570808117,1.6909867648605745,1.5061889872557503,1.1081666693738004,1.7306147854917782,0.5669650098629339,0.38812038027002355,1.6047004525264559,-1.244370278496267,4
1.6613186967395441,2.351987537924256,2.7269836804082717,2.7385384081279507,2.049391161432897,1.3267720368579217,2.575124512400817,1.7306147854917782,-0.008365522402945877,0.7474901635114755,1.1802604469475777,-1.244370278496267,4
1.180908158932101,0.8006903314696283,1.3023953846066258,1.3008764217290016,1.5821854301868337,1.0063846254332267,1.3547142060169948,1.919997380891228,0.07382455363503694,0.6478978223367221,1.298654344939915,-1.0855941456688394,4
1.2718535368167707,0.5870470133712105,1.4440446433068217,1.451711173285205,1.7549875499627754,1.1793938276025617,-0.13689839067433554,1.919997380891228,1.0601054660908307,0.024327633573707392,0.08623568990477792,-1.0855941456688394,4
1.027507383192541,1.5129525284866316,1.5303906347477998,1.534971483789247,1.1472007838542924,1.3762663680021496,0.602744219255251,0.27868155409599527,2.6217169108125042,0.7180607148118193,0.7249089613823638,-0.9268180128414121,4
0.5152253741110837,-0.019254569130375775,0.36469091555671534,0.3683375112385314,1.4539774058369426,0.4817760769197588,-0.19853527483513436,-0.44728506160189585,0.484774933824951,0.4572192433021914,0.9533953218914047,-0.6092657471865571,4
0.2622406598460856,1.2035675611576075,0.9030247654919387,0.895203433874462,0.7613753612511136,0.37922626756938715,0.7445090528250895,0.6574467448948951,-0.5015059786308428,0.7570427992707687,0.822139440117575,-0.45048961435912976,4
0.36652530434589603,0.1824044819201782,0.40764244460264276,0.4044996862463928,0.9125772160550621,0.5306093194675553,0.8924375748110045,-0.3525937639021709,-0.6658861307068085,-0.06707844039293738,0.42013099056393255,-0.45048961435912976,4
-0.09398813574575297,0.5446056969482067,0.24195750001655358,0.24273503423905363,0.6368561867066852,0.9046145065100885,1.1944583071989188,0.9099568720941621,0.3203947817489854,0.6189685965633942,-0.31237949969596834,-0.13293734870427487,4
0.624198946050936,0.9985904480429837,0.7885466705430533,0.791827957026692,0.6735807358810791,0.4817760769197588,1.2314404376953956,0.5311916812952623,1.7176260743946934,0.6176783843848072,0.4471360237170952,-0.6092657471865571,4
0.39059099153815935,0.3483130519230375,0.1353344144848891,0.13775356328878843,1.0637790708590107,0.8333754232638917,1.0403660967969215,0.6574467448948951,0.07382455363503694,0.468500549764841,0.33983836849150767,-0.45048961435912976,4
0.24737341309175434,2.511023417696148,2.042593019260312,2.03702890505044,0.8438491002350855,0.8700743449361746,2.451850744079216,0.7837018084945286,-0.41931590259285995,0.4765835944418248,0.6786054919408414,-0.2917134815317023,4
0.21314665797386767,1.2610796978797265,0.43716428960247855,0.438716818194031,0.6972291198191354,0.28289159817964354,1.1204940462059614,0.7837018084945286,1.2244856181667965,0.14300148345197042,-0.548291229326855,-0.2917134815317023,4
-1.329857693204297,-1.1185216639207545,-0.8515923164283222,-0.8548130355402017,-1.1355206353802403,-1.5887534071067995,-0.8580499353556793,-0.04958161126305077,-0.830266282782774,-0.0076201580242647084,0.26168321218081364,1.4548239795699993,4
0.7306551953563082,2.5278747123569976,2.707792371056267,2.7018826398696847,1.8701889631467354,1.560014072375099,0.4979615161818952,0.4049366176956288,0.484774933824951,0.5946767715139116,0.6841766930236111,-0.7680418800139845,4
2.1131422880779698,2.2492839615702374,1.727337566170805,1.742496484564644,1.3540866320825922,0.6880476934416503,2.279267468428979,1.3518495946928784,0.15601462967301977,0.6464105145865617,0.0658092612510574,-1.5619225441511218,4
2.099588493051288,3.0407193915513453,4.258921612527357,4.28302781316348,2.128240128678808,1.2693586127306162,2.9942553246942443,1.3518495946928784,-0.5836960546688256,-0.44462167663056085,1.0562129113229224,-1.5619225441511218,4
2.21583966680919,1.9690445444747833,2.5186013989477702,2.5407787355435754,1.4669840170028734,1.4389076308565645,0.5287799582622974,-0.3525937639021709,3.3614275951543497,0.17104380052491483,1.259134285450683,-1.7206986769785493,4
2.180089821088557,2.4229775903573434,2.93524170892018,2.9530563923926922,1.7411633803806998,1.2693586127306162,2.5504697587364955,-0.22633870030253742,3.5258077472303153,0.6997678920634299,0.655916040257422,-1.5619225441511218,4
1.3703912782375116,2.4737327802652582,2.561539562487977,2.56874887381566,1.6909867648605745,1.5061889872557503,3.462695644316315,6.843944861276926,-1.2412166629726882,0.0954263429031451,0.5732616802159967,-1.244370278496267,4
2.201036595220704,-0.13726905040432763,0.4827862709102137,0.4918940135454328,0.38639476133732137,-0.0870335322769706,-0.3341364199888865,-0.22633870030253742,1.3066756942047792,-0.061220344737984565,0.8867310999311451,-1.5619225441511218,4
2.348040508452024,1.4887266481923838,1.2432179026853725,1.2441609823669748,1.8701889631467354,1.4389076308565645,0.6212352845034884,1.1624669992934284,3.1148573670404014,0.37146666575146325,1.3596940205622965,-1.7206986769785493,4
2.4028033166406444,2.348106157807199,3.203172076035717,3.2282866758480404,2.2733939092905984,1.0352194924614488,1.0095476547165252,-0.3525937639021709,2.9504772149644354,0.6539858932179873,0.9635098093733755,-1.7206986769785493,4
2.195697221422311,1.740798153696492,2.36950080428341,2.38739212198709,2.321778502827862,1.4631289191602714,0.8492917558984453,1.3518495946928784,2.2107665306225903,0.5314100719933021,1.4475205576672066,-1.5619225441511218,4
2.515863217513746,0.6114533318932855,0.9046959237449367,0.9200325175666396,1.8000663638173684,1.4125801435699268,0.19594078379397298,-0.4788488275018041,1.9641963025086417,0.6524065615448952,1.1362491720382695,-1.8794748098059766,4
2.165355203010307,0.9136549801950803,1.592813855855726,1.6106156181428732,2.2733939092905984,1.4389076308565645,1.2314404376954056,1.1624669992934284,0.8957253140148651,0.13568423108855365,1.0970155044311862,-1.7206986769785493,4
2.386396795980876,1.788393895002571,2.7097533085403347,2.736747472119891,1.8000663638173684,0.7807204486906154,1.1451487998702832,0.9730844038939785,2.2107665306225903,0.4873281749442092,0.6320594391890717,-1.8794748098059766,4
1.544567432059644,2.915833597821112,2.79123553930566,2.803829204237745,2.049391161432897,0.9679381360622639,3.327094499162561,0.02617142689672893,3.8545680513822465,0.43844794334406817,0.5427872294549966,-1.244370278496267,4
2.296272541336221,1.6304138084507573,1.8399034025955925,1.8588826613033052,0.8621765977870791,0.8333754232638917,0.16512234171358253,-0.3525937639021709,2.9504772149644354,-0.08702486352081479,1.1468330571457355,-1.7206986769785493,4
2.4789578467779396,0.023390801799358773,1.1202941422794088,1.1353184163395942,2.2733939092905984,1.2370635616590073,-0.14306207909041624,1.1624669992934284,-1.2412166629726882,0.7676036991080958,1.3407721222607727,-1.7206986769785493,4
2.47425166794923,0.45039517305533205,1.402162391923196,1.418874688496452,1.8701889631467354,1.0352194924614488,0.43632463202109467,-0.3525937639021709,-1.0768365108967226,0.7308271281112841,1.4307175365616067,-1.7206986769785493,4
1.4255072196138534,0.630748730491825,1.2030092316899623,1.2097438958236986,2.1005917895146573,1.1793938276025617,0.5780894655909312,1.919997380891228,-1.2412166629726882,0.7108882474089621,1.5686063914638437,-1.0855941456688394,4
2.745777724718677,0.29312468519413,1.3743604820077986,1.394181961553162,1.8000663638173684,1.4125801435699268,-0.013624622352738636,-0.4788488275018041,1.3066756942047792,-0.3313826506217983,1.2909764994212594,-1.8794748098059766,4
2.5529732047203666,0.5721578671723789,1.4818777112732948,1.499585948104823,1.4669840170028734,1.4389076308565645,1.2129493724471603,1.1624669992934284,-0.41931590259285995,0.7326204576782129,1.316305753698677,-1.7206986769785493,4
2.043319707637483,0.7184342186214023,1.5264832037374112,1.5413595417248438,1.9347017545297538,1.2693586127306162,0.9972202778843642,1.3518495946928784,-0.7480762067447913,-1.2264285305969018,0.7757231669992849,-1.5619225441511218,4
-0.236299532088434,0.4769839418759474,-0.168066847568104,-0.1803785617469759,0.5799331354863754,0.798773582830025,0.08499439230454262,1.0362119356937949,0.07382455363503694,0.40532431682647013,-0.2295512666266619,0.025838784123152547,4
0.29400736693987317,1.9932366716871037,1.8167082289154515,1.8129830401809146,1.6685864900748044,0.8333754232638917,2.519651316656093,0.6574467448948951,-0.41931590259285995,-0.12018170639323435,-0.7357213502483587,-0.45048961435912976,4
0.037967902234140524,1.254520568824616,0.5428981817828784,0.5418680744875133,0.40398915898723553,-0.15749546188775496,-0.26017215899593293,-0.25790246620244595,-0.1727456744789115,-2.0359513960069657,-0.31177984356340926,-0.2917134815317023,3
2.3185199321628467,2.72668110571792,2.0331068527479923,2.048314934389115,2.474996382362529,1.2370635616590073,2.6860709038902533,1.1624669992934284,2.4573367587365387,-0.6431319619577781,-0.04655614126560966,-1.7206986769785493,3
2.899798122749166,1.2359941633549567,1.563824831958017,1.576130737932871,1.1689629698530617,1.2019602452768228,1.0095476547165212,-0.4788488275018041,2.4573367587365387,0.6035053722887946,0.6775854045190862,-1.8794748098059766,3
2.3762775814242794,2.9660889314188092,1.891516219374854,1.9085351549446892,2.2733939092905984,1.4389076308565645,2.0820294391144207,-0.3525937639021709,2.4573367587365387,0.6609592308629858,-0.7311814951056215,-1.7206986769785493,3
2.1131422880779716,1.8361510431593213,1.6718311798605014,1.6717585737917513,1.3540866320825922,0.6880476934416503,1.5889343658280322,1.3518495946928784,0.6491550859009166,0.6565121849902859,-0.24483391750718836,-1.5619225441511218,3
2.7100628498130552,1.8133738978135592,1.9501312715590777,1.9731240211871997,1.5896985658292664,0.7807204486906154,0.048012261808057975,-0.4788488275018041,1.882006226470659,0.6835808354756531,0.2370325292815659,-1.8794748098059766,3
2.1648931418162127,1.8165718059893292,1.727567031640165,1.7304166501890528,1.9347017545297538,1.2693586127306162,2.895636310036969,1.3518495946928784,0.3203947817489854,0.7694723011915459,0.04692182544947785,-1.5619225441511218,3
1.5464689184550824,2.8636988755801513,2.433884559895247,2.4458312089501253,1.8701889631467354,1.5061889872557503,3.9927728480991864,1.7306147854917782,-1.2412166629726882,0.730842598849157,0.09775782233514373,-1.244370278496267,3
1.6936439654619941,3.1411196356790176,1.7055519792057365,1.6986568378824893,0.6157735751436076,0.9679381360622639,2.870981556372652,-0.8260502524007957,3.032667291002418,0.5412514560281141,-0.24571763345211275,-1.244370278496267,3
2.3783609491271105,3.679641076574213,3.4665667693614663,3.4980997888580667,1.5896985658292664,1.2019602452768228,3.992772848099188,0.9730844038939785,-0.830266282782774,0.6993176961483258,0.5228693527683131,-1.8794748098059766,3
2.0995884930512845,1.9428947669447731,1.381439452291547,1.379364760939345,1.547625006231646,1.0755883063009608,2.7230530343867323,-0.22633870030253742,-1.2412166629726882,0.6659317176508867,-0.28126558832767307,-1.5619225441511218,3
1.7537455623762652,3.0961217463598043,2.714960158283313,2.7093465971219106,1.2498736613869472,1.1128518267682024,4.28862989207102,1.5412321900923283,-0.5836960546688256,0.6777009409374449,-0.2347672644562245,-1.4031464113236942,3
1.5833577545265813,1.8634132880506313,2.0312165416787593,2.0419118841862436,0.6157735751436076,0.9679381360622639,1.2314404376954016,1.7306147854917782,-0.1727456744789115,0.6179311441634431,0.5259153893184162,-1.244370278496267,3
1.2161128213390708,2.0715413064294412,1.3154634745462876,1.3175648006872054,1.5821854301868337,1.1793938276025617,2.223794272684265,0.15242649049636242,-1.2412166629726882,0.6783835053183197,0.6998668773807237,-1.0855941456688394,4
1.669626729605766,3.280799769593399,2.5836323921674262,2.593259322271069,1.2498736613869472,1.2991694291044091,4.171519812165504,1.5412321900923283,-1.2412166629726882,0.30194542533680163,0.0030596735330481587,-1.4031464113236942,4
0.33379596976441633,-0.2575475313359344,-0.09695381730447045,-0.09366369366284422,0.4589716516432166,1.1361415270602282,-0.11840732542609617,0.6574467448948951,0.40258485778696823,0.3945266776925668,-0.26098206942135044,-0.45048961435912976,4
1.0526463447101602,2.2535350854307996,2.344537790863423,2.343201671700017,1.814574487816548,1.2092230003903783,1.4410058438421132,2.109379976290678,-1.2412166629726882,0.31454786460951495,1.005110190043179,-0.9268180128414121,4
0.6569903856316208,0.5590265843800657,0.5130374861235565,0.5158309020377545,0.8296600698722515,1.1068415815315502,1.0958392925416396,0.5311916812952623,2.0463863785466248,-0.38497604486976744,0.37664456949436514,-0.6092657471865571,4
1.0136986578518747,1.42299571640781,2.1027885454510664,2.108557707481431,1.3140442098448564,0.7080928975550627,0.602744219255251,2.109379976290678,-0.41931590259285995,0.1652157544355864,1.1437572403544944,-0.9268180128414121,4
1.0197178458208844,1.5216068663715872,0.21092464245045633,0.21640639565979441,0.31298365390147337,0.20696279471974752,1.8354819024712263,0.27868155409599527,2.78609706288847,0.6872683672195138,-0.9390373563741254,-0.9268180128414121,4
1.9340679053011895,1.5557248821693133,2.7207694059245,2.738356530757705,1.7411633803806998,1.0755883063009608,1.0465297852130038,1.3518495946928784,-1.2412166629726882,-1.881119898199993,1.340717825449669,-1.5619225441511218,4
2.420344528638559,0.6961914954611426,1.0381526675033117,1.0210854648756504,2.2733939092905984,1.0352194924614488,1.0218750315486822,-0.3525937639021709,2.375146682698556,-0.19322576320302418,1.3278621466744418,-1.7206986769785493,4
2.210893900694654,1.6548745266740013,1.2342558463342956,1.2347470686013022,1.3540866320825922,0.6880476934416503,0.5780894655909331,1.3518495946928784,1.7176260743946934,0.5805817780505355,0.15005354428266365,-1.5619225441511218,4
1.4700291653584692,2.6843479057780484,1.660014671096556,1.6588814200568418,1.6909867648605745,0.9679381360622639,2.735380411218893,0.02617142689672893,-0.830266282782774,0.5193419625229023,0.24919036663837332,-1.244370278496267,1
1.011574238568696,1.6968448432969114,1.6383641506864715,1.6430161610052676,0.8135139318731653,1.0421796327786064,1.5149701048350732,2.109379976290678,-0.0905555984409287,0.5344009034724765,0.23592749470764096,-0.9268180128414121,1
0.18638755851806516,1.2637673756269316,1.0639340968509552,1.0568691819856075,0.9904690806510352,0.8700743449361746,-0.013624622352736919,0.7837018084945286,-0.9124563588207568,0.41513996194730457,0.06302054309475849,-0.2917134815317023,1
1.950812687035786,0.23129387811100888,0.6626104160771288,0.6728551755259974,1.6220628424428207,0.7402166220957876,0.21443184904221824,1.5412321900923283,-0.9124563588207568,0.38707184691151253,0.37959986756319775,-1.4031464113236942,1
1.3840819802846662,1.2320285154293376,1.2924145794436779,1.3022629662026681,1.5117845665744132,1.1473550864600923,1.0218750315486802,1.7306147854917782,-0.9124563588207568,-1.3034060549624795,-0.1960137005103856,-1.244370278496267,1
2.4896537077522787,0.8766497050298849,1.9654478606921093,1.978933370619899,2.474996382362529,1.4389076308565645,0.7445090528250895,-0.3525937639021709,0.5669650098629339,0.6947189965575805,1.3796761244297275,-1.7206986769785493,1
1.6019923212018767,2.0822906960796757,2.142088751144363,2.151157983002758,2.049391161432897,1.6856059376535795,1.9464282939606665,0.02617142689672893,1.882006226470659,0.7620719662963311,0.6402667715313716,-1.244370278496267,1
1.9274963683185546,0.6922050336610641,1.4259662243446543,1.4392574162157596,1.7411633803806998,1.2693586127306162,0.7753274949054878,-0.22633870030253742,1.3066756942047792,0.2730413669173542,0.8719965317097,-1.5619225441511218,1
2.106741884870925,1.13935825153266,1.5471637459057224,1.5591056537991526,2.2733939092905984,1.2370635616590073,0.8986012632270889,1.1624669992934284,0.23820470571100258,0.5742356397347769,1.2887318691159557,-1.7206986769785493,1
1.8078501637356919,3.401637109956099,3.2052980327979235,3.2224279398002227,1.9942520234986933,1.2991694291044091,1.897118786632027,1.5412321900923283,0.07382455363503694,0.6109035586648457,0.28872239699381486,-1.4031464113236942,1
2.208018853264749,-0.25572292837245825,0.43005650470413015,0.4343434263545709,0.38639476133732137,0.8818179998713056,-0.5313744493034451,-0.22633870030253742,0.5669650098629339,0.6480266475193175,0.4513759767315652,-1.5619225441511218,1
1.277720980551266,1.9668826590050332,1.1842054370670654,1.1863922660910777,1.7549875499627754,1.0063846254332267,2.291594845261142,1.919997380891228,-0.41931590259285995,0.7119909958217056,-0.2193045590054563,-1.0855941456688394,1
2.2737342230910924,0.385518485483427,0.7872304888866744,0.7941417072449297,1.3540866320825922,1.2693586127306162,-0.013624622352734957,1.3518495946928784,0.9779153900528479,0.7502298426688813,1.0037714266237032,-1.5619225441511218,1
1.90490670994075,1.845204136063143,1.0532312099269376,1.0616271785797151,1.1605482579335378,0.8818179998713056,0.9232560168914067,1.3518495946928784,0.07382455363503694,-0.3564792423329211,-0.9457589827636811,-1.5619225441511218,4
2.336061144160765,1.2917264289303654,1.3095807443362601,1.3171608806455553,2.2733939092905984,1.2370635616590073,2.0450473086179457,-1.1101241454999706,3.032667291002418,0.4315863528250487,-0.0893762562479517,-1.7206986769785493,4
0.7816530604819577,1.1314441686191534,0.9958703142231466,1.0000541893140384,2.031470941604281,1.2370635616590073,1.182130930366758,-0.5419763593016208,1.3066756942047792,0.6891385208387194,0.8115789693960275,-0.7680418800139845,4
0.9595259661308075,1.0446724951317334,1.7427216967420462,1.7486743862921443,1.814574487816548,1.5433097356139223,1.2437678145275586,2.109379976290678,0.07382455363503694,0.5901275603754378,1.2013016951137132,-0.9268180128414121,4
1.0501678555464522,0.41878220052535436,1.0080520596162663,1.0072490580924665,0.980357357863729,0.8751362651668345,-0.08758888334569614,0.27868155409599527,0.23820470571100258,-0.07778955773596304,0.9743574756070446,-0.9268180128414121,4
1.1937431921013086,1.535346901282055,1.3596724991714484,1.3632321635102314,1.0637790708590107,0.6603662210945568,1.5704433005797946,0.15242649049636242,0.9779153900528479,0.7682081389604349,1.0870477506139298,-1.0855941456688394,4
1.3163890646070686,0.806303492986034,0.7207505017108266,0.7292854294338892,1.3325823682882525,0.7885211856644346,1.5272974816672356,1.7306147854917782,1.9641963025086417,-1.033581339661534,-0.19770261947904766,-1.244370278496267,4
1.4730715435911699,0.44205582358882345,1.1523864723734554,1.160143114261426,1.3325823682882525,0.9679381360622639,0.5287799582622935,-0.8260502524007957,0.7313451619388995,0.48095303591803884,1.2089033285018214,-1.244370278496267,4
1.424013194588866,2.0064759357303044,1.7369409231966462,1.7450836380738368,1.8701889631467354,1.3267720368579217,2.575124512400817,1.7306147854917782,-0.830266282782774,0.23843828181935645,0.8529411077989201,-1.244370278496267,4
1.9910949449822204,1.2125613899074286,1.2581904358234748,1.263971098790354,1.808157432970757,0.9265342244319957,1.7183718225657132,-0.10008363670290457,3.197047443078384,-0.05446447859110395,0.39448398905366683,-1.4031464113236942,4
2.38697344239862,0.4149826952253603,1.3725641352599942,1.386899019121669,2.0717914362186676,1.6407517000541216,0.387015124692455,-0.3525937639021709,-0.41931590259285995,0.6745642681712152,1.269308461333542,-1.7206986769785493,4
2.1562679995265066,1.1091652683918714,1.7023286584789055,1.7136377254371082,1.9347017545297538,1.0755883063009608,1.0465297852130078,-0.22633870030253742,1.1422955421288137,0.48730121038968505,1.1031330196876843,-1.5619225441511218,4
1.6936439654619926,1.1739505439675508,0.9361259089533845,0.9392294948806498,1.3325823682882525,1.1473550864600923,1.1328214230381222,1.7306147854917782,0.484774933824951,0.7124325145731425,0.24825203615992172,-1.244370278496267,3
0.3094094067429226,2.7365497637369454,2.035781100195343,2.0257910436796056,1.2149809256629591,1.1361415270602282,1.1944583071989203,-0.3525937639021709,0.5669650098629339,0.11924809642755031,0.2825466617534785,-0.45048961435912976,3
3.021675133364598,1.5309332677991838,2.2683433545853,2.2432274727780483,0.9585951718649597,0.7807204486906154,-0.8888683774360835,-1.2048154431996956,4.512088659686109,0.20479822608864262,0.5789615663404317,-1.8794748098059766,3
2.57568563298066,3.7129950613857017,4.371027605918927,4.407431330584661,2.4311697577816753,1.4125801435699268,4.128373993252942,0.9730844038939785,-1.2412166629726882,0.6498908415585644,1.0582800059736133,-1.8794748098059766,3
2.4640766489005967,2.607941072889968,2.5923640747670658,2.617010562883601,0.537859575888755,0.35948065210440877,1.9587556707928275,0.9730844038939785,0.23820470571100258,0.5270070762614548,0.7593633109309416,-1.8794748098059766,3
2.5582746314641702,1.9011394776247703,2.324841438257703,2.3498274816711047,1.5896985658292664,0.9913403469837194,1.7738450183104253,0.9730844038939785,2.6217169108125042,0.6024071263658053,0.8515337383102943,-1.8794748098059766,3
2.351360503698458,1.8001619730110392,1.8826525379727477,1.8919460071308194,2.128240128678808,1.2693586127306162,2.550469758736491,1.3518495946928784,-0.0905555984409287,0.6404730062244403,0.44615154033603044,-1.5619225441511218,3
2.232251395888215,2.3552156604805856,1.9334865137257755,1.9490427768299963,1.3540866320825922,1.0755883063009608,1.0958392925416436,-0.22633870030253742,2.703906986850487,0.5629355641478507,-0.8490503660876257,-1.5619225441511218,3
2.244504574220418,2.5710980158656374,2.6646161115539293,2.6870379920062044,1.8701889631467354,1.2370635616590073,3.1606749119284028,1.1624669992934284,-1.2412166629726882,0.7477588101037677,0.34019565987654526,-1.7206986769785493,3
2.402375482201667,4.9373343198441075,4.577694746356522,4.600170144358267,1.8701889631467354,1.2370635616590073,5.41042118379756,1.1624669992934284,-1.2412166629726882,0.6836545486885804,-0.17912683464077692,-1.7206986769785493,3
1.6841365334848013,3.071679596551041,2.0179409983101535,2.0283933971700776,1.5117845665744132,0.9679381360622639,4.596814312875016,1.7306147854917782,-1.2412166629726882,0.6643940701926063,-0.7078246199180704,-1.244370278496267,3
2.1279282462888958,3.683304442473765,2.8161836916036016,2.8351782115929542,1.547625006231646,1.4631289191602714,5.015945125168448,1.3518495946928784,1.7998161504326762,0.7630094435823516,-0.49320834242234424,-1.5619225441511218,3
2.2182868798001176,2.5036124594933113,2.720497499546547,2.7384404627273122,1.547625006231646,1.4631289191602714,2.476505497743538,1.3518495946928784,-0.1727456744789115,0.5253594929442189,0.4809596414072649,-1.5619225441511218,3
2.316808594406953,2.897241662095039,2.4407817650507737,2.449987386172853,0.8621765977870791,1.0352194924614488,1.5026427280029138,1.1624669992934284,2.78609706288847,0.275988613094812,0.37180485868885066,-1.7206986769785493,4
1.7569049551563776,3.7300857954137445,2.8116920306397426,2.827454988719752,1.9942520234986933,0.9265342244319957,5.01594512516845,1.5412321900923283,-0.41931590259285995,0.46298431947251206,-0.2587838379429794,-1.4031464113236942,4
0.5670513058928114,3.4323638556943457,1.2286005858387565,1.2300455553981524,0.4186511570288299,0.2682120295107302,0.40550618994069443,0.4049366176956288,-1.2412166629726882,0.7178120231048264,-0.7132716275102198,-0.7680418800139845,4
2.293859555100412,0.4706102981016206,0.21715808058599198,0.22746837563271002,-0.0006819869607866526,0.6880476934416503,-0.2355174053316153,-0.22633870030253742,1.2244856181667965,0.6711862907404138,0.3924065152266135,-1.5619225441511218,4
2.104106424726847,0.6985347789558326,1.1657651673519762,1.174628679834317,2.128240128678808,0.8818179998713056,0.47947045093365387,1.3518495946928784,-0.6658861307068085,0.3760902778293908,0.8199907786820285,-1.5619225441511218,4
2.3951022967391173,2.1210040642553505,2.3571586101400315,2.377972269101459,2.0717914362186676,1.6407517000541216,0.5780894655909331,1.1624669992934284,2.2107665306225903,0.4390305291576215,0.826594294465239,-1.7206986769785493,4
2.2638769176171407,2.031079390993243,2.4394073778311336,2.4517176765519157,2.128240128678808,0.8818179998713056,0.7013632339125303,-0.22633870030253742,3.1148573670404014,0.7713714418625752,1.0469703670536792,-1.5619225441511218,4
1.5107209742208445,2.2873443423762363,1.3844463317176974,1.375432046635912,2.228593359719058,1.5061889872557503,2.735380411218893,0.02617142689672893,0.15601462967301977,0.17668101977950149,-0.4101921498286091,-1.244370278496267,4
-1.001560881159917,-0.16529736301772044,-0.6369262214780835,-0.6356850582581233,-0.6296817029452126,-0.9832211995141267,0.522616269846213,-0.8576140183007039,-1.2412166629726882,-0.8960179894736926,-2.1696677713805497,0.8197194482602896,4
-0.15004810919135975,-1.0046028200166832,-0.7443207575700536,-0.7458515768958424,-0.8024838227211538,-1.00052211973106,-0.9505052615968781,-1.9097395482976478,-0.9946464348587397,-1.9436433811311822,-0.5581469277446992,0.025838784123152547,4
-0.14828787607101254,-0.2539890598923494,-0.47588507971769095,-0.4736500507062997,-0.387758735258895,-0.031670587582783905,-0.7162851017858446,1.0362119356937949,0.23820470571100258,-2.1320872311038457,-0.6219740745126764,0.025838784123152547,4
-0.08579960029864171,1.2910484760064054,2.3112767112056973,2.3056511368005532,0.8564165271278816,0.5219588593590885,-0.4697375651426504,1.0362119356937949,4.018948203458212,-3.1930443617292004,1.8033999574867448,0.025838784123152547,4
-0.27062407793522886,-0.0954144746545649,-0.40176478028719914,-0.4001453572682288,-0.5260004310796479,-0.17007794931825182,0.4917978277658128,1.0362119356937949,-1.2412166629726882,-0.6887016645759376,-1.3443394900421577,0.025838784123152547,4
0.35561552615206915,-0.5626422607053653,-0.18397706499336683,-0.18210210501043478,0.7613753612511136,0.9847584751620599,-0.5621928913838473,-0.3525937639021709,0.23820470571100258,0.06774840228998014,1.0679047261676355,-0.45048961435912976,4
0.7463995027105355,0.030187813590519936,0.18718909986554416,0.1783597655192807,0.4186511570288299,0.9141130509429151,0.22059553745829844,0.4049366176956288,-0.41931590259285995,0.1323132539015072,1.3394633415905712,-0.7680418800139845,4
0.4347372951403135,0.04753924033982277,0.5589789483865762,0.562452271451027,0.9857394038634245,0.638042453072707,-0.4450828114783306,0.5311916812952623,-0.9124563588207568,-2.4441832489237805,0.5531371579134741,-0.6092657471865571,4
0.5195313207226874,-1.1118332409695626,-0.2726013292514767,-0.2685048923909296,0.5175014018899065,1.1068415815315502,-0.9998147689255158,0.5311916812952623,0.15601462967301977,-4.079204894253416,0.8359064638668866,-0.6092657471865571,4
0.330908087301345,-0.3244352426842945,-0.20268198280395244,-0.2041540413035083,0.30776979683926814,0.37922626756938715,-0.10607994859393552,0.6574467448948951,-0.9946464348587397,-0.26356581807265816,-0.1388807321179879,-0.45048961435912976,4
0.2255927507440071,-0.7212773449974235,-0.31064422512273987,-0.31018416402807103,0.40398915898723553,0.7232786582470424,-0.9505052615968821,-1.2995067408994205,0.15601462967301977,-0.21869464825214321,0.8604013958089983,-0.2917134815317023,4
0.08087031613591857,-0.2841291968822186,-0.25346957648329055,-0.25494570738124306,0.35224093060513545,0.762136340017695,-0.47590125355873086,0.9099568720941621,0.40258485778696823,-0.9279930333107064,-0.40945506031938783,-0.13293734870427487,0
0.4503049482745754,-0.07331866534002855,0.1946697949789125,0.198141459314601,0.8296600698722515,0.638042453072707,0.10964914596885826,0.5311916812952623,-0.5836960546688256,-1.7262085248259738,0.26545712221637785,-0.6092657471865571,0
-0.04838601789751042,-0.046048711837399774,-0.11214487772945192,-0.11147543193678015,0.06762567450358531,-0.2352108254290601,0.15895865329749986,-0.163211168502721,-0.5015059786308428,-0.2773194015760564,-0.04943278691663382,-0.13293734870427487,0
0.08479632628179391,0.039022644822144376,0.16736027739396644,0.1683593405732761,0.6368561867066852,0.334701840540514,0.04184857339198342,0.9099568720941621,-1.2412166629726882,0.09018593532876447,0.6592231648134592,-0.13293734870427487,0
0.7104614098367549,1.1268454966412251,1.6038193938245735,1.6043497682145853,1.0637790708590107,1.0755883063009608,0.9047649516431654,0.4049366176956288,-0.9124563588207568,0.6673684940441115,1.1269874205756785,-0.7680418800139845,0
0.7905520168126093,-0.5680034781752666,0.13456643791232148,0.13787342067881114,1.0637790708590107,0.42968728486877605,-0.5005560072230467,-0.5419763593016208,0.07382455363503694,0.3701358426957903,1.494043569542697,-0.7680418800139845,0
0.8607404694629786,-0.6781966427869676,-0.10370646210446059,-0.09893266363356361,0.8135139318731653,0.5410495299432914,-0.4574101883104895,0.27868155409599527,-0.5015059786308428,-1.393951773602848,0.3439066053385342,-0.9268180128414121,0
1.1411638148426249,-0.5957178329091871,0.25573567424106297,0.26118689211873297,1.6477310618259842,1.3762663680021496,-0.48206494197480737,0.27868155409599527,-0.830266282782774,-0.03000150435974732,1.5715916046909704,-0.9268180128414121,0
1.2311481459087126,-0.1860643955437978,0.3848002387369259,0.3906247508087361,1.7549875499627754,1.5254122319412324,-0.2971542894924156,-0.7313589547010707,-0.008365522402945877,0.3904803165854656,1.3198573961742721,-1.0855941456688394,0
1.2139125299386349,-0.5857585768925426,0.3063961862029417,0.3130702472617225,1.0637790708590107,1.5254122319412324,-0.6115023987124869,-0.7313589547010707,-0.008365522402945877,0.6592586788667484,1.5534770784921579,-1.0855941456688394,0
1.0253829639093606,0.28967507539551834,0.6548327118579907,0.6607198174476726,1.48088763583542,0.8751362651668345,0.15895865329749986,0.27868155409599527,0.484774933824951,0.5147791129905349,0.5594034819675873,-0.9268180128414121,0
1.1255341586878085,-0.08467522974156753,0.5529002565924206,0.5600447518930041,1.4093833104108928,0.6603662210945568,-0.09375257176177634,0.15242649049636242,-0.1727456744789115,0.2290946061971909,1.1269181848351273,-1.0855941456688394,0
1.3342630367241868,-0.3232096654231293,0.2727138210008556,0.27287851831706655,1.6909867648605745,1.3267720368579217,0.20826816062613804,-0.8260502524007957,-1.2412166629726882,-0.5515169672879562,0.8788982054456081,-1.244370278496267,0
1.3133466863743661,-0.6785290888481118,0.19142868530954954,0.19915802764444657,0.7949757734297688,1.1473550864600923,-1.086106406750634,-0.8260502524007957,-0.0905555984409287,0.04236045698679601,1.5057651670425876,-1.244370278496267,0
0.6731542467582575,-0.4394029962192512,-0.18101441020829673,-0.1883773502685927,0.5799331354863754,0.9141130509429151,-0.2663358474120134,0.4049366176956288,-1.2412166629726882,-0.7832541893621098,1.283866992860443,-0.7680418800139845,0
0.3357212247397972,0.023428375552062675,0.16074657815814491,0.15805303621711828,1.0637790708590107,1.1361415270602282,-0.3649548620692907,0.6574467448948951,0.6491550859009166,0.48615463330772885,1.5499290787009192,-0.45048961435912976,0
0.968731783024583,0.18590880342568045,0.34993278387950366,0.3556842892383266,0.980357357863729,0.5410495299432914,0.10964914596886244,0.27868155409599527,0.07382455363503694,0.6610132135166378,0.9400722116165171,-0.9268180128414121,0
1.4472113286132118,0.18154150517155457,0.4982058764734562,0.5024521346747539,1.6909867648605745,0.42968728486877605,0.2329229142904576,-0.8260502524007957,-0.9946464348587397,0.7341665120292384,1.194568026834759,-1.244370278496267,0
1.6000908348064369,0.08621549161375162,0.788560953006432,0.7919337881861551,1.8701889631467354,1.1473550864600923,0.5287799582622935,-1.3373832599793103,-0.830266282782774,0.6083572252479241,1.529602478201637,-1.244370278496267,0
0.9612963155334551,-0.4254368767955442,0.06339771187226481,0.06855376198122903,0.980357357863729,1.2092230003903783,-0.5067196956391311,0.27868155409599527,-0.008365522402945877,0.5180025582102401,1.2856808663452033,-0.9268180128414121,0
1.4753533272656951,-0.018181235246873335,0.6229229862523121,0.6281673382494649,1.5117845665744132,0.7885211856644346,-0.5190470724712881,0.02617142689672893,-0.5015059786308428,0.3227101002451448,1.1570857926941789,-1.244370278496267,0
-0.017279937510960408,0.33943220749914393,-0.15611948557075706,-0.16228356693022036,0.2099333025543602,0.334701840540514,0.04801226180806165,0.9099568720941621,-0.5015059786308428,0.2649070990770985,-0.9492759652421668,-0.13293734870427487,0
0.7323665331122005,1.1569708374949494,1.3073303140554857,1.307548772473638,2.031470941604281,1.2370635616590073,1.3547142060169968,0.4049366176956288,-1.2412166629726882,0.6492937510389959,0.9366135303040384,-0.7680418800139845,0
1.8070603155406637,0.21712246069100918,1.2440730676594844,1.2555420257310796,1.808157432970757,0.9265342244319957,0.5904168424230901,-0.10008363670290457,0.3203947817489854,0.7348175875260862,1.4146212653902965,-1.4031464113236942,0
1.3217132265142946,0.34843423958482894,1.3438488930579808,1.3533192086678143,1.6909867648605745,1.5061889872557503,-0.013624622352738636,1.7306147854917782,-0.7480762067447913,0.5437295078010869,1.4425580417892525,-1.244370278496267,0
1.2861554309196026,0.3603463202787582,0.5701941287215001,0.5773618782380564,0.7181748313071279,1.3524030297718967,0.5041252045979732,0.15242649049636242,1.2244856181667965,0.152370090029758,0.023184300780550022,-1.0855941456688394,0
1.3894061421918924,0.2807327061532983,1.0000826437717458,1.0041220172354268,1.8701889631467354,1.3267720368579217,0.23292291429045564,0.02617142689672893,-0.33712582655487716,0.3895152315526079,1.4249364402767355,-1.244370278496267,0
1.1422260244842137,0.3826839582653844,0.8940545819850553,0.8977411710706823,1.3140442098448564,1.3762663680021496,-0.28482691266025273,0.27868155409599527,0.23820470571100258,0.6901531140541614,1.1417511543556143,-0.9268180128414121,0
1.4104718950442081,0.5701260825316556,0.824960728644168,0.8063965172292912,2.1005917895146573,1.5254122319412324,0.14663127646533727,1.919997380891228,-0.9946464348587397,0.6012029774796673,1.3035238776863074,-1.0855941456688394,0
1.352517306120392,0.2425132263138138,0.6981438886790235,0.7039149840733766,1.3325823682882525,0.9679381360622639,0.20826816062613804,0.02617142689672893,0.8957253140148651,0.48236653948838587,1.3170830447776778,-1.244370278496267,0
1.8303608372939917,0.04676057428355246,0.8733819244773887,0.8836192219375694,1.4359682519148835,0.7402166220957876,-0.11840732542609812,-0.9207415501005207,0.07382455363503694,0.7637619995516419,1.4589489193552865,-1.4031464113236942,0
1.4137723321448632,-0.19396991476726916,0.5943459230382332,0.5965596132123488,1.4093833104108928,1.1793938276025617,0.060339638640218865,0.15242649049636242,-0.5015059786308428,0.4264730708060545,1.5652932032202758,-1.0855941456688394,0
0.057616256041119265,-0.6077379825469049,-0.3668308180092687,-0.3644357402346416,-0.501604837699515,-0.3776889919214539,-0.7655946091144863,-0.163211168502721,-1.0768365108967226,-0.7046495944386901,0.13280500644633092,-0.13293734870427487,0
0.05570358443159148,0.4521664522767981,-0.03298645942091243,-0.03153165862128258,-0.03587078226061498,0.5764829715579096,0.33154192894773665,0.7837018084945286,0.8135352379768823,0.38270161390560425,0.4886804778364381,-0.2917134815317023,0
0.770700498844235,1.7008721229568493,0.839059638574213,0.8381730135938527,1.0637790708590107,0.7526377955848684,1.7800087067265087,0.4049366176956288,1.5532459223187276,0.44701864173478484,-0.5453274598624093,-0.7680418800139845,0
1.1493706488591913,-0.030749386880960506,0.8346756464372912,0.8418626991979548,1.7549875499627754,1.3524030297718967,-0.2663358474120114,-0.7313589547010707,0.40258485778696823,-0.15871560483557112,1.524118897868233,-1.0855941456688394,0
1.129833578665669,0.2418563672234544,0.4617510216865586,0.466579319977874,1.48088763583542,0.8751362651668345,0.4794704509336519,-0.6366676570013458,-0.2549357505168943,0.43258774889735613,0.25370817345864644,-0.9268180128414121,0
1.6495294810878278,0.22127132983018724,1.0211021806154161,1.0304570045927077,2.049391161432897,1.5061889872557503,-0.22319002849945394,-1.3373832599793103,-0.2549357505168943,0.7190702967018358,1.1061353243380203,-1.244370278496267,0
1.2582850731807522,-0.28099253560662896,0.48796431960782655,0.4926816879443698,1.7549875499627754,1.5254122319412324,-0.19853527483513214,0.15242649049636242,-0.33712582655487716,0.7303298114530794,1.3408461381824563,-1.0855941456688394,4
0.14313738614182775,3.749630557499569,1.630937847848525,1.624782449056576,1.2837090414829355,0.42968728486877605,5.509040198454837,0.7837018084945286,-1.2412166629726882,-0.35096342571506595,-0.8347628136058871,-0.2917134815317023,4
0.4009521755723339,0.5102393621787051,0.4818693420976096,0.47848056801301103,0.6735807358810791,1.1068415815315502,0.7753274949054878,0.5311916812952623,-0.0905555984409287,0.5771116686124979,0.8750348844566678,-0.6092657471865571,4
0.6211295789790733,0.29410301615481416,0.41690342408872705,0.4192272653270801,0.25736917857128505,0.5911625402268226,0.04184857339198342,0.4049366176956288,0.40258485778696823,0.3262880849864597,0.9985838842470636,-0.7680418800139845,4
0.2757174446737533,-0.02480481597740709,0.1894395365759885,0.18940411056441545,0.15656794203531962,0.5306093194675553,0.35003299419597605,0.6574467448948951,0.484774933824951,0.5056716796055155,0.22373542130784072,-0.45048961435912976,4
0.4807570995518404,0.6521746469639578,1.0398196454493314,1.0394040260314523,1.2149809256629591,0.37922626756938715,0.07883070388846045,0.6574467448948951,-0.6658861307068085,0.013431106161569967,1.4822531345350918,-0.45048961435912976,4
1.7245211791602226,0.0801126786151265,0.9714600483752611,0.9824752901840217,1.4359682519148835,0.3675814174233743,0.306887175283421,1.5412321900923283,-1.2412166629726882,0.5931437472898038,1.3786763819410566,-1.4031464113236942,4
1.1999773510692104,0.30099728126098024,0.9919989554755092,0.9992082734065528,1.9277896697387165,1.1793938276025617,-0.013624622352740598,-0.7313589547010707,0.40258485778696823,0.519485355523863,1.3741686725287923,-1.0855941456688394,4
1.1284678805550543,-0.16921781458039625,0.14470627251992912,0.14572446674065676,1.2365811906349518,1.3524030297718967,0.35619668261205306,-0.7313589547010707,0.6491550859009166,0.21031645401728077,0.49900054251456216,-1.0855941456688394,4
0.8809224526531788,-0.4552897151462453,-0.07860708072611831,-0.0738069396174036,1.1472007838542924,0.20696279471974752,-0.531374449303449,0.27868155409599527,-0.0905555984409287,-1.005824349943117,0.4863050229530105,-0.9268180128414121,4
0.7474263053640727,-0.09802203608852925,-0.07104631624834387,-0.06690001061830828,0.4186511570288299,0.5911625402268226,0.5041252045979717,0.4049366176956288,-1.2412166629726882,0.5403951905493513,-0.0016202864495373315,-0.7680418800139845,4
1.0179474964182336,0.6780365679189543,0.18790672912931228,0.1897105368242629,0.980357357863729,0.7080928975550627,0.30688717528341514,0.27868155409599527,1.4710558462807448,0.3881985139858083,-0.5031433929562004,-0.9268180128414121,1
-0.28998664225906057,-0.25418272147354043,-0.17611356978223852,-0.17526874790548977,-0.14583576757257738,0.42968728486877605,-0.32797273157281,1.1624669992934284,-0.1727456744789115,-0.08794739301967089,0.24639481751522788,0.18461491695057997,1
0.828543714993461,0.3050073985323119,0.6820811849593641,0.685873300301678,1.547625006231646,1.7214893277331442,-0.11224363701001595,0.4049366176956288,-0.008365522402945877,-0.26486863365360175,0.751544592104171,-0.7680418800139845,1
1.161472251561589,0.14717072332794234,0.5106493675461531,0.5176299758380561,1.9277896697387165,1.1793938276025617,-0.019788310768815157,-0.7313589547010707,1.5532459223187276,-1.9592549853640557,0.2496711260141435,-1.0855941456688394,1
1.257184927480534,0.7627821604475323,0.8917249991688323,0.8982418216315196,1.5821854301868337,0.8333754232638917,0.42399725518893183,0.15242649049636242,1.3066756942047792,-0.26734195136120886,0.9531298218625552,-1.0855941456688394,1
0.518537640735396,1.476042592278259,1.5093569159391447,1.5052458070712444,0.8296600698722515,1.1068415815315502,0.9848929010522053,0.5311916812952623,-0.5015059786308428,0.28235529044273566,0.12525027958250237,-0.6092657471865571,1
0.28598547120911927,0.5045778616455304,0.08904614755056225,0.08694060887855863,1.0637790708590107,0.9847584751620599,0.9787292126361229,2.677527762489028,-1.0768365108967226,0.7014503761122264,-0.13443258477488815,-0.45048961435912976,1
1.0735364676614223,-0.22550999841360952,0.15327907767641352,0.1565832906876642,1.1472007838542924,1.3762663680021496,-0.2601721589959369,0.27868155409599527,-0.5015059786308428,0.6502354504693963,1.292081239946268,-0.9268180128414121,1
0.7145686204509027,-0.48234729312820973,-0.17821851996474464,-0.1737989373686467,0.4186511570288299,0.2682120295107302,-0.24168109374769356,0.4049366176956288,-0.33712582655487716,0.18579751575671086,0.9315319620017867,-0.7680418800139845,1
0.9386358431795462,0.28863854678546313,0.4603865778703565,0.46590011999283476,0.980357357863729,0.5410495299432914,-0.5313744493034451,0.27868155409599527,-0.0905555984409287,0.321972192888023,0.5218929733633053,-0.9268180128414121,1
1.0172393566571765,-0.7584261440670572,-0.15153389292545,-0.14600890394498364,-0.020703198079654744,0.8751362651668345,-0.9505052615968821,-0.6366676570013458,0.40258485778696823,-0.058512919912697914,0.9128069739775745,-0.9268180128414121,1
1.0136986578518747,-0.6836049879126621,-0.13091955448841996,-0.12599020077090434,0.8135139318731653,0.5410495299432914,-0.4574101883104895,-0.6366676570013458,-0.5015059786308428,0.4067995743702094,0.6232121582219586,-0.9268180128414121,1
0.5968285828453738,-0.8326556764411598,-0.37932078372662986,-0.37450314603563517,-0.22647675680135015,0.2682120295107302,-0.6546482176250461,0.4049366176956288,-0.5015059786308428,0.12399789748702725,0.4604848738645318,-0.7680418800139845,1
1.037522502670387,-0.615123997251751,-0.18405551205549742,-0.17854863234979168,0.3725705917552461,0.48735701892522176,-0.35879117365321417,0.15242649049636242,0.5669650098629339,-0.555635580349391,0.5845948044980296,-1.0855941456688394,4
0.5347677471945227,0.24611738404878059,0.5732151437334655,0.5766856282905006,0.36142206789873377,0.7943088292256545,-0.4943923188069663,0.5311916812952623,1.0601054660908307,-0.03590282541845935,-0.1957049839285171,-0.6092657471865571,4
1.2909227289538794,0.9301862386777212,0.5489454110225417,0.5513926107936117,1.5821854301868337,1.0063846254332267,0.8677828211466827,1.919997380891228,1.388865770242762,0.7297637074896672,0.11886571721100753,-1.0855941456688394,4
-0.3789762055655659,1.0943858948278509,-0.2979381607670863,-0.2970474731495079,-0.28023741628719834,-0.5122517047198256,1.330059452352677,1.1624669992934284,-1.0768365108967226,0.18882291064531445,-2.1085578122428386,0.18461491695057997,4
0.5456982270547494,-0.0791420833153992,0.2616995225951711,0.2637964940969096,0.8296600698722515,1.1068415815315502,-0.48206494197480737,-1.0343711073401907,0.15601462967301977,0.5036630443836977,0.8985752602722058,-0.6092657471865571,4
0.6311547059619896,-0.6469706389848812,-0.18719359500323224,-0.18318368387210596,0.36142206789873377,0.9505752053786027,-0.8888683774360795,-0.44728506160189585,-0.2549357505168943,-0.6051662586251313,0.758013930164955,-0.6092657471865571,4
0.43374361515301885,1.3449073428065643,1.6420319082091734,1.6408280540479132,1.4539774058369426,0.4817760769197588,-0.03827937601705674,0.5311916812952623,4.26551843157216,-0.8609046816524611,1.679142263907717,-0.6092657471865571,4
0.3424596171536319,0.37434328552630625,0.3286547497256043,0.3271066047953119,1.0637790708590107,0.8333754232638917,0.20210447221005906,0.6574467448948951,0.7313451619388995,0.007462562741398741,0.02557156347526563,-0.45048961435912976,4
-0.5539830087078101,1.2898110060074404,-0.03561550726229478,-0.04216841891657582,-0.33682758416703873,-0.3776889919214539,2.2854311568450596,0.21555402229617884,-0.5836960546688256,-0.196523598435942,-0.9512916101683491,0.5021671826054348,4
0.309088530913693,-0.30167505139754763,0.2188040804870005,0.22166592091185344,1.3661827804669076,1.2875245789583964,-0.007460933936656228,-0.9586180691804105,-0.5015059786308428,-1.0716037181895415,0.762631567861632,-0.45048961435912976,4
0.6354606525735933,0.2576524590297962,0.5665167529764604,0.5690176801166034,0.9857394038634245,0.7943088292256545,0.12197652280101964,-0.44728506160189585,0.3203947817489854,0.3265621617978924,0.7007496816677666,-0.6092657471865571,4
0.36748793183358647,1.2698330115355467,0.43191388100767303,0.4343130146121051,0.9125772160550621,0.37922626756938715,1.8416455908873093,0.6574467448948951,1.5532459223187276,0.30411874947592377,-0.296655156261734,-0.45048961435912976,4
1.042024248294264,0.06336172421287775,0.6575325324440321,0.6630843893667056,1.981417913807112,1.3762663680021496,0.06033963864022083,-0.6366676570013458,0.15601462967301977,0.6417270755152291,1.2726050668075983,-0.9268180128414121,4
1.0491056459048618,-0.0718084028031486,0.30694172617511417,0.305847605359376,1.48088763583542,1.0421796327786064,0.18361340696181624,0.27868155409599527,0.8135352379768823,0.2139192437369391,0.685137025639357,-0.9268180128414121,4
0.3700549384674273,0.888481654346203,0.34450983440437877,0.3462917730292461,0.6101735064471652,0.37922626756938715,1.2129493724471603,0.6574467448948951,-1.2412166629726882,0.6428409604441876,-0.23642169120316692,-0.45048961435912976,3
0.6652710521923975,0.2148738951351301,0.2634993193210653,0.2513319872801907,1.1418187378545968,0.7943088292256545,-0.21086265166729354,0.5311916812952623,0.5669650098629339,0.21845025933145332,1.5396485199444776,-0.6092657471865571,3
0.4387120150894848,0.7745724763653673,0.2536992482700797,0.22665603692729877,0.9857394038634245,0.3255097007668113,0.8492917558984453,0.5311916812952623,1.7998161504326762,0.7527434473046332,-0.052608899500686354,-0.6092657471865571,3
1.5590187286649728,0.08882934806023456,0.9032475252422918,0.9120877754120952,1.8701889631467354,0.9679381360622639,0.5041252045979756,0.02617142689672893,0.40258485778696823,0.7329404188788106,1.4294187831376617,-1.244370278496267,3
1.0129905180908185,0.6894210369886632,1.5908631602742298,1.5971436885922103,2.1482613397976755,1.0421796327786064,0.5041252045979732,2.109379976290678,-1.2412166629726882,0.7228516127722258,1.1611113668945363,-0.9268180128414121,3
0.6864695585879901,-0.12700845359382806,0.3055721567487961,0.3074951660824551,0.9857394038634245,1.2631079576844984,-0.48206494197480937,0.5311916812952623,0.07382455363503694,0.6502526666815236,1.1960154143594468,-0.6092657471865571,3
0.7494799106711437,-0.18121219587255208,0.1558427167228712,0.1567132904039461,1.0637790708590107,0.7526377955848684,-0.29715428949240974,0.4049366176956288,0.6491550859009166,0.634934959899481,1.4481023335766534,-0.7680418800139845,3
0.5668967334503429,-0.17973179304577636,-0.08732682848259538,-0.08540263971924543,0.6735807358810791,0.4817760769197588,0.20826816062613804,0.5311916812952623,-0.5836960546688256,0.7469360759112803,0.8096887870491837,-0.6092657471865571,3
1.0374213398473784,-0.09806195044832271,-0.026385716608639014,-0.020853271472158173,0.646670505882601,0.5410495299432914,-0.013624622352738636,0.27868155409599527,0.40258485778696823,0.7055103116387318,0.2648073402040508,-0.9268180128414121,3
0.4744844946320513,0.4794705072431203,0.47818031488962703,0.48145531492645294,0.8296600698722515,0.7943088292256545,0.31921455211557603,0.5311916812952623,-0.830266282782774,0.7374179758279599,0.27776927988343375,-0.6092657471865571,3
-0.3624332739252538,1.5244367188558403,-0.6787164969110255,-0.6904441550723428,-0.6834423624310609,-0.10856356632471034,3.018910078358566,1.1624669992934284,-1.2412166629726882,0.5532268943098733,-2.3807336536846537,0.18461491695057997,3
0.8398503465117164,2.178274974612313,1.7506036475428757,1.7368601476482215,1.981417913807112,1.0421796327786064,2.895636310036967,0.27868155409599527,0.15601462967301977,-0.19897209943059602,0.7308621339317978,-0.9268180128414121,3
1.2733203977503957,1.6202282655158533,2.0065707474440555,2.014596811784484,1.2365811906349518,0.6603662210945568,0.966401835803962,0.15242649049636242,0.9779153900528479,0.5679896879078303,0.6559874272280571,-1.0855941456688394,3
0.8425766845917961,0.9201568325893733,0.5182825975693223,0.5222200250561723,1.547625006231646,0.9141130509429151,1.0958392925416396,0.4049366176956288,0.23820470571100258,0.5476912341479098,-0.23798478037014936,-0.7680418800139845,3
